MODEL SETTING
SlowTwitchFibersPercentage, DaysBetweenWorkout, HourseOfSleep, Intensity, Lift, NutritionQualitry
50, 5, 8.000000, 95, true, 0.450000

Tic, MuscleMass, Anabolic, Catabolic
0, 15.817523, 50.000000, 52.000000
1, 15.832352, 78.901355, 74.304501
2, 15.847271, 72.894683, 68.650372
3, 15.862422, 67.051500, 63.096956
4, 15.877617, 61.379267, 57.740672
5, 15.889848, 55.990085, 53.270500
6, 15.918607, 85.405637, 76.091182
7, 15.948073, 79.236568, 70.411205
8, 15.978480, 73.226692, 64.830065
9, 16.010146, 67.382660, 59.357845
10, 16.042764, 61.710643, 54.146450
11, 16.084639, 90.717593, 76.733921
12, 16.127814, 84.430845, 71.053886
13, 16.172607, 78.300300, 65.472493
14, 16.219409, 72.331880, 59.999563
15, 16.267347, 66.531211, 54.767002
16, 16.319720, 94.988604, 76.991185
17, 16.372541, 88.620512, 71.322833
18, 16.424830, 82.405641, 65.752674
19, 16.476087, 76.349536, 60.325464
20, 16.525510, 70.457241, 55.358534
21, 16.579602, 99.538249, 78.146198
22, 16.632998, 93.085381, 72.474348
23, 16.685567, 86.782880, 66.899083
24, 16.737159, 80.635669, 61.445346
25, 16.787332, 74.648330, 56.360605
26, 16.841931, 103.725316, 79.202327
27, 16.895744, 97.198415, 73.528380
28, 16.948653, 90.819233, 67.949452
29, 17.000522, 84.592294, 62.474616
30, 17.051255, 78.521805, 57.186473
31, 17.106345, 108.560835, 80.855552
32, 17.160536, 101.948384, 75.171130
33, 17.213759, 95.480612, 69.579103
34, 17.265950, 89.161675, 64.088207
35, 17.317042, 82.995470, 58.715181
36, 17.372485, 113.905245, 83.136484
37, 17.427044, 107.200739, 77.433174
38, 17.480660, 100.638087, 71.819220
39, 17.533272, 94.221079, 66.302934
40, 17.584815, 87.953276, 60.896958
41, 17.640642, 119.212599, 85.647859
42, 17.695607, 112.418607, 79.921796
43, 17.749656, 105.763900, 74.281889
44, 17.802731, 99.251881, 68.735935
45, 17.854769, 92.885813, 63.291948
46, 17.910999, 124.627268, 88.475376
47, 17.966394, 117.746595, 82.725619
48, 18.020900, 111.002560, 77.058359
49, 18.074463, 104.398404, 71.481125
50, 18.127024, 97.937155, 66.001525
51, 18.183690, 130.141440, 91.598716
52, 18.239544, 123.174579, 85.822381
53, 18.294537, 116.342193, 80.125196
54, 18.348618, 109.647186, 74.514153
55, 18.401733, 103.092312, 68.996381
56, 18.458802, 135.270308, 94.612173
57, 18.515084, 128.227424, 88.812972
58, 18.570531, 121.316789, 83.089396
59, 18.625096, 114.541224, 77.448238
60, 18.678726, 107.903324, 71.896289
61, 18.735985, 138.299621, 96.114448
62, 18.792472, 131.220391, 90.312178
63, 18.848137, 124.271958, 84.583646
64, 18.902935, 117.457114, 78.935582
65, 18.956815, 110.778354, 73.374600
66, 19.014487, 143.156183, 99.209709
67, 19.071404, 136.007304, 93.383508
68, 19.127525, 128.987694, 87.628211
69, 19.182806, 122.099836, 81.950014
70, 19.237198, 115.346037, 76.355141
71, 19.295178, 147.049134, 101.678828
72, 19.352421, 139.850097, 95.838862
73, 19.408887, 132.778972, 90.067459
74, 19.464532, 125.838099, 84.370541
75, 19.519311, 119.029654, 78.754052
76, 19.577706, 151.972452, 105.100685
77, 19.635387, 144.707032, 99.238013
78, 19.692315, 137.567843, 93.440661
79, 19.748449, 130.557136, 87.714311
80, 19.803747, 123.676974, 82.064616
81, 19.862622, 157.493301, 109.143456
82, 19.920806, 150.152679, 103.252737
83, 19.978262, 142.936747, 97.424027
84, 20.034954, 135.847599, 91.662654
85, 20.090841, 128.887145, 85.973907
86, 20.150071, 161.740205, 112.309200
87, 20.208629, 154.347571, 106.402065
88, 20.266478, 147.078392, 100.554414
89, 20.323585, 139.934631, 94.771297
90, 20.379911, 132.918093, 89.057736
91, 20.439432, 165.191026, 114.950372
92, 20.498297, 157.759764, 109.032403
93, 20.556472, 150.450707, 103.171536
94, 20.613922, 143.265873, 97.372806
95, 20.670610, 136.207029, 91.641089
96, 20.730564, 170.261096, 118.987730
97, 20.789881, 162.766383, 113.047676
98, 20.848528, 155.392771, 107.162075
99, 20.906475, 148.142050, 101.335536
100, 20.963686, 141.015855, 95.572621
101, 21.024187, 176.711411, 124.270278
102, 21.084074, 169.133251, 118.299756
103, 21.143318, 161.674900, 112.380384
104, 21.201890, 154.337944, 106.516351
105, 21.259758, 147.123868, 100.711863
106, 21.320658, 181.426349, 128.325335
107, 21.380963, 173.793386, 122.337269
108, 21.440645, 166.279031, 116.397628
109, 21.499676, 158.884867, 110.510488
110, 21.558026, 151.612319, 104.679854
111, 21.619349, 186.211716, 132.674799
112, 21.680095, 178.522954, 126.667489
113, 21.740238, 170.951821, 120.706058
114, 21.799750, 163.499824, 114.794377
115, 21.858604, 156.168308, 108.936229
116, 21.920358, 190.833675, 137.405077
117, 21.981563, 183.092441, 131.378045
118, 22.042184, 175.468061, 125.394445
119, 22.102195, 167.961884, 119.457855
120, 22.161572, 160.575148, 113.571803
121, 22.223538, 194.942396, 142.763958
122, 22.285096, 187.156752, 136.715210
123, 22.346165, 179.487231, 130.707174
124, 22.406690, 171.935041, 124.743149
125, 22.466627, 164.501345, 118.826426
126, 22.528159, 196.604654, 147.290041
127, 22.589408, 188.810523, 141.227263
128, 22.650220, 181.131954, 135.202838
129, 22.710552, 173.570167, 129.219966
130, 22.770377, 166.126304, 123.281784
131, 22.829654, 197.725465, 152.199876
132, 22.888871, 189.930242, 146.122240
133, 22.947862, 182.250091, 140.080543
134, 23.006552, 174.686211, 134.077852
135, 23.064925, 167.239730, 128.117144
136, 23.120651, 198.841697, 157.529572
137, 23.176130, 191.044791, 151.435538
138, 23.231313, 183.362489, 145.375097
139, 23.286222, 175.795904, 139.351097
140, 23.340885, 168.346127, 133.366317
141, 23.390878, 198.405096, 162.029862
142, 23.440516, 190.627691, 155.925515
143, 23.489751, 182.964417, 149.852625
144, 23.538608, 175.416400, 143.813946
145, 23.587124, 167.984732, 137.812128
146, 23.629415, 198.673504, 168.083713
147, 23.671048, 190.903966, 161.961975
148, 23.712058, 183.247963, 155.869145
149, 23.752497, 175.706592, 149.807744
150, 23.792419, 168.280932, 143.780246
151, 23.825670, 199.297502, 174.879055
152, 23.857897, 191.528338, 168.736175
153, 23.889152, 183.872077, 162.619443
154, 23.919480, 176.329761, 156.531187
155, 23.948926, 168.902445, 150.473704
156, 23.973994, 198.893127, 180.246756
157, 23.997783, 191.136979, 174.088923
158, 24.020329, 183.493205, 167.955063
159, 24.041659, 175.962872, 161.847401
160, 24.061801, 168.547044, 155.768114
161, 24.078867, 199.300672, 186.447324
162, 24.094402, 191.543608, 180.271692
163, 24.108427, 183.898450, 174.117809
164, 24.120957, 176.366231, 167.987771
165, 24.131999, 168.947989, 161.883613
166, 24.140920, 199.192239, 192.468945
167, 24.148068, 191.439695, 186.276417
168, 24.153449, 183.798649, 180.103604
169, 24.157057, 176.270114, 173.952443
170, 24.158886, 168.855119, 167.824835
171, 24.160990, 198.816690, 197.346539
172, 24.161125, 191.070594, 191.140285
173, 24.159280, 183.435648, 184.952079
174, 24.155439, 175.912893, 178.783786
175, 24.149581, 168.503367, 172.637219
176, 24.145234, 199.047097, 202.730263
177, 24.138728, 191.297017, 196.509003
178, 24.130043, 183.657748, 190.304113
179, 24.119151, 176.130340, 184.117388
180, 24.106020, 168.715826, 177.950550
181, 24.095671, 198.863259, 207.420144
182, 24.082992, 191.113558, 201.185219
183, 24.067956, 183.474428, 194.965252
184, 24.050523, 175.946922, 188.761966
185, 24.030650, 168.532069, 182.577007
186, 24.014412, 199.339455, 212.804820
187, 23.995677, 191.579065, 206.553982
188, 23.974406, 183.929039, 200.316647
189, 23.950549, 176.390360, 194.094390
190, 23.924054, 168.964037, 187.888760
191, 23.901606, 199.366136, 218.140439
192, 23.876491, 191.600170, 211.874093
193, 23.848658, 183.944303, 205.619767
194, 23.818049, 176.399527, 199.378959
195, 23.784599, 168.966856, 193.153145
196, 23.757652, 198.669392, 221.285201
197, 23.727917, 190.906609, 215.007178
198, 23.695336, 183.253801, 208.740232
199, 23.659841, 175.712040, 202.485881
200, 23.621361, 168.282358, 196.245564
201, 23.589852, 199.180768, 225.897236
202, 23.555429, 191.402628, 219.604140
203, 23.518027, 183.734356, 213.321022
204, 23.477572, 176.176956, 207.049279
205, 23.433985, 168.731444, 200.790278
206, 23.398320, 199.161268, 229.645380
207, 23.359619, 191.374161, 223.338575
208, 23.317817, 183.696851, 217.040760
209, 23.272832, 176.130341, 210.753311
210, 23.224580, 168.675644, 204.477551
211, 23.184597, 198.844341, 233.239297
212, 23.141469, 191.051440, 226.918511
213, 23.095115, 183.368255, 220.605806
214, 23.045448, 175.795821, 214.302508
215, 22.992376, 168.335161, 208.009898
216, 22.948379, 198.649116, 236.767833
217, 22.901131, 190.847481, 230.432709
218, 22.850542, 183.155485, 224.104786
219, 22.796520, 175.574201, 217.785355
220, 22.738964, 168.104661, 211.475663
221, 22.692017, 198.487042, 239.353109
222, 22.641739, 190.675004, 233.004111
223, 22.588036, 182.972630, 226.661694
224, 22.530809, 175.380998, 220.327118
225, 22.469953, 167.901148, 214.001592
226, 22.420017, 198.914602, 242.735133
227, 22.366669, 191.082700, 236.370681
228, 22.309810, 183.360484, 230.012100
229, 22.249336, 175.748984, 223.660571
230, 22.185138, 168.249230, 217.317261
231, 22.132784, 198.333313, 244.344174
232, 22.076954, 190.495262, 237.966042
233, 22.017541, 182.766987, 231.593351
234, 21.954440, 175.149540, 225.227267
235, 21.887533, 167.643964, 218.868939
236, 21.833969, 198.652361, 245.922122
237, 21.776892, 190.794123, 239.529495
238, 21.716195, 183.045752, 233.141975
239, 21.651766, 175.408299, 226.760701
240, 21.583486, 167.882808, 220.386800
241, 21.528990, 198.798634, 246.994116
242, 21.470951, 190.922257, 240.587123
243, 21.409260, 183.155871, 234.184993
244, 21.343803, 175.500528, 227.788844
245, 21.274460, 167.957275, 221.399794
246, 21.219355, 198.694888, 247.464681
247, 21.160684, 190.803367, 241.043702
248, 21.098335, 183.022019, 234.627454
249, 21.032193, 175.351905, 228.217055
250, 20.962137, 167.794074, 221.813616
251, 20.906367, 197.591599, 246.726541
252, 20.847017, 189.698991, 240.292681
253, 20.783964, 181.916728, 233.863570
254, 20.717089, 174.245987, 227.440375
255, 20.646266, 166.687859, 221.024228
256, 20.590593, 197.428453, 246.430801
257, 20.531330, 189.520633, 239.983049
258, 20.468356, 181.723455, 233.540124
259, 20.401552, 174.038050, 227.103162
260, 20.330791, 166.465506, 220.673291
261, 20.275138, 196.967298, 245.821355
262, 20.215895, 189.048450, 239.359938
263, 20.152934, 181.240425, 232.903395
264, 20.086135, 173.544419, 226.452897
265, 20.015369, 165.961552, 220.009587
266, 19.960129, 197.419212, 245.996017
267, 19.901293, 189.475713, 239.519734
268, 19.838738, 181.643283, 233.048309
269, 19.772345, 173.923074, 226.582897
270, 19.701985, 166.316193, 220.124639
271, 19.646694, 196.838668, 245.307726
272, 19.587802, 188.885338, 238.817465
273, 19.525184, 181.043297, 232.332130
274, 19.458715, 173.313742, 225.852901
275, 19.388266, 165.697811, 219.380933
276, 19.333325, 196.712249, 244.819981
277, 19.274781, 188.741868, 238.315023
278, 19.212507, 180.883061, 231.815082
279, 19.146380, 173.137029, 225.321344
280, 19.076268, 165.504910, 218.834968
281, 19.021889, 197.009221, 244.648435
282, 18.963907, 189.015567, 238.128263
283, 18.902199, 181.133760, 231.613170
284, 18.836644, 173.364954, 225.104322
285, 18.767111, 165.710280, 218.602877
286, 18.712367, 195.054061, 242.544024
287, 18.654010, 187.069629, 236.010973
288, 18.591909, 179.197403, 229.483308
289, 18.525938, 171.438632, 222.962241
290, 18.455961, 163.794497, 216.448963
291, 18.401839, 194.897665, 241.752150
292, 18.344112, 186.895917, 235.204221
293, 18.282649, 179.006626, 228.661817
294, 18.217322, 171.231069, 222.126165
295, 18.147994, 163.570451, 215.598475
296, 18.093919, 192.981091, 239.339557
297, 18.036226, 184.987099, 232.778624
298, 17.974781, 177.106116, 226.223682
299, 17.909456, 169.339432, 219.675977
300, 17.840112, 161.688273, 213.136741
301, 17.786445, 191.414412, 236.992674
302, 17.729169, 183.423095, 230.418541
303, 17.668143, 175.545171, 223.850815
304, 17.603236, 167.782021, 217.290796
305, 17.534307, 160.134924, 210.739753
306, 17.482079, 191.604457, 235.901295
307, 17.426255, 183.589496, 229.311874
308, 17.366705, 175.688421, 222.729213
309, 17.303301, 167.902498, 216.154577
310, 17.235904, 160.232981, 209.589239
311, 17.183754, 188.923646, 232.494411
312, 17.128018, 180.927808, 225.893623
313, 17.068548, 173.046267, 219.300168
314, 17.005211, 165.280512, 212.715428
315, 16.937864, 157.631887, 206.140740
316, 16.886513, 187.248902, 229.705521
317, 16.831579, 179.256642, 223.092041
318, 16.772920, 171.379330, 216.486548
319, 16.710401, 163.618415, 209.890425
320, 16.643878, 155.975268, 203.305044
321, 16.593130, 184.941205, 226.318990
322, 16.538807, 176.962187, 219.694164
323, 16.480763, 169.098718, 213.078041
324, 16.418861, 161.352336, 206.472074
325, 16.352953, 153.724473, 199.877687
326, 16.303124, 182.942808, 223.075207
327, 16.249720, 174.971987, 216.438749
328, 16.192602, 167.117508, 209.811812
329, 16.131633, 159.380872, 203.195860
330, 16.066665, 151.763528, 196.592356
331, 16.016767, 178.670561, 217.898235
332, 15.963292, 170.742803, 211.254382
333, 15.906087, 162.932230, 204.621158
334, 15.845009, 155.240511, 198.000140
335, 15.779904, 147.669218, 191.392885
336, 15.730244, 174.435137, 212.544823
337, 15.676988, 166.549821, 205.894342
338, 15.619983, 158.782874, 199.255845
339, 15.559083, 151.136017, 192.630975
340, 15.494130, 143.610891, 186.021366
341, 15.444719, 169.777579, 206.648807
342, 15.391708, 161.942245, 199.993937
343, 15.334934, 154.226419, 193.352530
344, 15.274243, 146.632010, 186.726365
345, 15.209473, 139.160782, 180.117187
346, 15.161387, 166.664250, 201.786884
347, 15.109715, 158.855036, 195.125829
348, 15.054302, 151.166488, 188.479676
349, 14.994995, 143.600492, 181.850249
350, 14.931629, 136.158885, 175.239383
351, 14.884023, 161.427570, 195.071405
352, 14.832832, 153.679102, 188.410514
353, 14.777888, 146.052766, 181.766455
354, 14.719032, 138.550662, 175.141223
355, 14.656095, 131.174766, 168.536789
356, 14.609875, 157.266923, 188.991440
357, 14.560096, 149.562999, 182.330473
358, 14.506589, 141.982649, 175.688299
359, 14.449193, 134.528064, 169.067030
360, 14.387735, 127.201351, 162.468781
361, 14.343267, 153.192604, 182.808650
362, 14.295278, 145.532917, 176.149719
363, 14.243602, 137.998334, 169.511727
364, 14.188076, 130.591146, 162.896924
365, 14.128526, 123.313592, 156.307579
366, 14.085580, 148.093334, 175.634315
367, 14.039163, 140.496983, 168.983571
368, 13.989095, 133.027433, 162.356319
369, 13.935208, 125.687267, 155.755056
370, 13.877325, 118.478928, 149.182262
371, 13.836135, 142.534238, 167.883261
372, 13.791513, 135.010410, 161.245623
373, 13.743276, 127.615589, 154.634574
374, 13.691257, 120.352549, 148.052831
375, 13.635274, 113.223934, 141.503115
376, 13.596116, 136.656372, 159.658377
377, 13.553584, 129.214219, 153.040480
378, 13.507498, 121.903536, 146.452761
379, 13.457686, 114.727305, 139.898198
380, 13.404011, 107.688414, 133.379799
381, 13.367934, 131.435514, 151.749246
382, 13.328590, 124.066617, 145.154365
383, 13.285803, 116.831659, 138.593513
384, 13.239406, 109.733942, 132.070015
385, 13.189219, 102.776620, 125.587214
386, 13.156625, 126.156232, 143.628208
387, 13.120899, 118.865757, 137.063639
388, 13.081868, 111.711959, 130.537485
389, 13.039372, 104.698415, 124.053438
390, 12.993237, 97.828561, 117.615227
391, 12.965021, 121.175701, 135.602675
392, 12.933944, 113.960862, 129.073492
393, 12.899755, 106.885705, 122.587643
394, 12.862307, 99.954088, 116.149235
395, 12.821438, 93.169746, 109.762439
396, 12.798051, 115.828857, 127.172322
397, 12.771935, 108.703082, 120.690174
398, 12.742944, 101.720162, 114.256956
399, 12.710944, 94.884353, 107.877313
400, 12.675793, 88.199770, 101.555972
401, 12.658039, 110.720610, 118.835578
402, 12.637916, 103.685097, 112.409247
403, 12.615228, 96.795831, 106.038119
404, 12.589870, 90.057497, 99.727466
405, 12.561726, 83.474615, 93.482663
406, 12.550365, 105.439682, 110.302077
407, 12.536915, 98.505559, 103.945088
408, 12.521279, 91.721457, 97.650539
409, 12.503385, 85.092526, 91.424454
410, 12.483187, 78.623738, 85.272987
411, 12.479517, 100.846742, 102.296515
412, 12.474189, 94.006081, 96.016346
413, 12.467162, 87.319424, 89.806586
414, 12.458423, 80.792305, 83.674055
415, 12.447960, 74.430089, 77.625762
416, 12.452662, 95.927045, 94.070238
417, 12.456254, 89.196894, 87.885090
418, 12.458739, 82.624929, 81.779450
419, 12.460171, 76.217227, 75.761183
420, 12.460626, 69.979711, 69.838426
421, 12.475547, 92.580688, 87.189259
422, 12.490023, 85.931864, 81.096997
423, 12.504138, 79.444628, 75.093056
424, 12.518038, 73.125532, 69.186909
425, 12.531316, 66.981960, 63.506930
426, 12.556584, 88.791484, 80.247842
427, 12.582149, 82.241944, 74.263403
428, 12.608184, 75.857660, 68.379510
429, 12.634585, 69.645754, 62.677668
430, 12.660191, 63.648995, 57.418397
431, 12.695704, 86.282814, 74.851644
432, 12.732245, 79.808721, 68.964958
433, 12.770116, 73.503022, 63.185339
434, 12.809438, 67.372924, 57.578679
435, 12.842521, 61.438584, 53.737616
436, 12.883972, 84.677997, 71.673963
437, 12.926934, 78.264112, 65.857271
438, 12.971675, 72.019730, 60.154869
439, 13.016540, 65.953307, 54.838054
440, 13.049092, 60.137778, 52.480228
441, 13.090492, 83.800891, 70.751625
442, 13.132940, 77.430619, 64.967752
443, 13.176331, 71.229728, 59.319789
444, 13.219150, 65.226654, 54.121976
445, 13.249284, 59.502131, 52.149719
446, 13.289085, 83.693256, 70.844788
447, 13.329923, 77.348722, 65.082296
448, 13.371797, 71.177992, 59.448652
449, 13.413487, 65.196375, 54.226567
450, 13.443821, 59.484098, 52.010827
451, 13.483947, 83.730052, 70.747363
452, 13.525092, 77.397107, 64.991659
453, 13.567331, 71.232514, 59.348441
454, 13.609709, 65.243437, 54.039530
455, 13.641075, 59.472037, 52.006424
456, 13.682032, 85.108115, 71.864129
457, 13.724036, 78.758363, 66.103517
458, 13.767105, 72.575001, 60.453151
459, 13.810955, 66.565216, 54.999320
460, 13.846430, 60.746097, 52.039829
461, 13.890197, 85.954627, 71.577183
462, 13.934823, 79.602722, 65.837067
463, 13.980165, 73.416163, 60.211015
464, 14.025505, 67.401877, 54.830653
465, 14.063712, 61.598208, 52.044170
466, 14.109426, 87.142545, 71.868340
467, 14.155790, 80.781341, 66.138914
468, 14.202564, 74.584352, 60.535554
469, 14.248813, 68.572671, 55.296079
470, 14.289425, 62.814501, 52.123346
471, 14.336990, 88.346990, 71.961134
472, 14.385037, 81.974967, 66.246085
473, 14.433289, 75.765390, 60.639876
474, 14.481156, 69.724856, 55.272041
475, 14.524714, 63.874637, 52.069634
476, 14.574297, 89.694142, 72.159116
477, 14.624093, 83.310203, 66.456830
478, 14.673680, 77.087246, 60.871866
479, 14.722146, 71.033291, 55.514407
480, 14.767577, 65.193735, 52.113004
481, 14.818739, 91.940672, 72.973751
482, 14.869477, 85.522080, 67.272692
483, 14.919478, 79.262788, 61.678598
484, 14.968648, 73.168602, 56.230148
485, 15.015299, 67.245054, 52.295698
486, 15.067468, 95.940149, 74.758693
487, 15.119130, 89.448698, 69.043199
488, 15.170124, 83.113545, 63.431768
489, 15.220313, 76.939986, 57.936553
490, 15.268337, 70.933136, 53.124136
491, 15.321128, 97.863654, 74.219959
492, 15.373260, 91.351140, 68.532130
493, 15.424601, 84.992764, 62.954404
494, 15.474647, 78.793813, 57.576416
495, 15.522526, 72.759225, 53.254470
496, 15.575348, 100.451796, 74.993263
497, 15.627492, 93.900672, 69.308098
498, 15.678860, 87.501468, 63.725380
499, 15.729307, 81.259281, 58.270661
500, 15.777972, 75.178836, 53.623160
501, 15.831465, 103.541334, 75.937982
502, 15.884220, 96.941789, 70.253508
503, 15.936149, 90.492019, 64.669816
504, 15.987140, 84.196680, 59.196740
505, 16.036813, 78.060216, 54.277942
506, 16.090983, 106.279974, 76.516927
507, 16.144347, 99.641335, 70.839362
508, 16.196763, 93.150247, 65.261142
509, 16.248066, 86.811367, 59.809005
510, 16.298054, 80.628937, 54.770037
511, 16.352505, 109.327589, 77.429139
512, 16.406088, 102.644738, 71.753674
513, 16.458675, 96.107250, 66.175760
514, 16.510187, 89.719583, 60.743072
515, 16.560458, 83.485792, 55.791668
516, 16.615258, 113.335625, 79.406912
517, 16.669199, 106.587859, 73.713967
518, 16.722155, 99.983658, 68.116246
