MODEL SETTING
SlowTwitchFibersPercentage, DaysBetweenWorkout, HourseOfSleep, Intensity, Lift, NutritionQualitry
50, 5, 8.000000, 95, true, 0.300000

Tic, MuscleMass, Anabolic, Catabolic
0, 16.563242, 50.000000, 52.000000
1, 16.568961, 78.782672, 76.940288
2, 16.564403, 71.403328, 72.672784
3, 16.549016, 64.358987, 68.398328
4, 16.522499, 57.706814, 64.123031
5, 16.486981, 51.938578, 59.867470
6, 16.473439, 79.688106, 84.038719
7, 16.448504, 72.263553, 79.787575
8, 16.411474, 65.172424, 75.519891
9, 16.361739, 58.438990, 71.240782
10, 16.302290, 52.770634, 66.955165
11, 16.270623, 80.190117, 90.914762
12, 16.226570, 72.728387, 86.681999
13, 16.169315, 65.599306, 82.425001
14, 16.098075, 58.816378, 78.147854
15, 16.014745, 52.916495, 73.854423
16, 15.965448, 80.708801, 98.177701
17, 15.902806, 73.200038, 93.967470
18, 15.825918, 66.023989, 89.726233
19, 15.733835, 59.181576, 85.457022
20, 15.627073, 52.982925, 81.162733
21, 15.558587, 79.768629, 104.695310
22, 15.475770, 72.271441, 100.505432
23, 15.377596, 65.106551, 96.278574
24, 15.263036, 58.283630, 92.017049
25, 15.133887, 52.375792, 87.723002
26, 15.047556, 78.810552, 110.993934
27, 14.945995, 71.316675, 106.821005
28, 14.828058, 64.154902, 102.605650
29, 14.692620, 57.341117, 98.349565
30, 14.543039, 51.774033, 94.054245
31, 14.439657, 77.210832, 116.519220
32, 14.320270, 69.737818, 112.352485
33, 14.183473, 62.597894, 108.138780
34, 14.028520, 55.903917, 103.879250
35, 13.862175, 51.131293, 99.574850
36, 13.742931, 75.075137, 120.808523
37, 13.606605, 67.637807, 116.631139
38, 13.451875, 60.545329, 112.402602
39, 13.279074, 54.138730, 108.123536
40, 13.099069, 50.391127, 103.794454
41, 12.967776, 73.300481, 124.169968
42, 12.819444, 65.871892, 119.964410
43, 12.652334, 58.816349, 115.703963
44, 12.467125, 52.603317, 111.388979
45, 12.280239, 50.029251, 107.019684
46, 12.139348, 71.010587, 125.775888
47, 11.980648, 63.625727, 121.515456
48, 11.802451, 56.617261, 117.196648
49, 11.609469, 51.069255, 112.819499
50, 11.421177, 50.000000, 108.384567
51, 11.276084, 68.932876, 125.424982
52, 11.114932, 61.533074, 121.079230
53, 10.936280, 54.612683, 116.673183
54, 10.747938, 50.252869, 112.207477
55, 10.569670, 50.000000, 107.683175
56, 10.428842, 66.336568, 122.505879
57, 10.269995, 59.011835, 118.048041
58, 10.095550, 52.588296, 113.529738
59, 9.920266, 50.028189, 108.951964
60, 9.756993, 50.000000, 104.317027
61, 9.625801, 64.914458, 117.878773
62, 9.477846, 57.672986, 113.293381
63, 9.316274, 51.672724, 108.649114
64, 9.159839, 50.016687, 103.947564
65, 9.014370, 50.000000, 99.192471
66, 8.897412, 63.264084, 111.279094
67, 8.763769, 56.039872, 106.555516
68, 8.620142, 50.758523, 101.776896
69, 8.485599, 50.005904, 96.945980
70, 8.364056, 50.000000, 92.067668
71, 8.263182, 60.446234, 101.671295
72, 8.149010, 53.604725, 96.801646
73, 8.032905, 50.178239, 91.885268
74, 7.927889, 50.000000, 86.927239
75, 7.834718, 50.000000, 81.933887
76, 7.757474, 59.546777, 90.728770
77, 7.668382, 52.887072, 85.736843
78, 7.581008, 50.131754, 80.710695
79, 7.506341, 50.000000, 75.657690
80, 7.445331, 50.000000, 70.610611
81, 7.396069, 58.966572, 78.833622
82, 7.336683, 52.419477, 73.763327
83, 7.281070, 50.061743, 68.729646
84, 7.238837, 50.000000, 63.873749
85, 7.209750, 50.000000, 59.371004
86, 7.187848, 58.517371, 67.183233
87, 7.158191, 52.137522, 62.242314
88, 7.132899, 50.036431, 57.978437
89, 7.117140, 50.000000, 54.797487
90, 7.107830, 50.000000, 52.785050
91, 7.102051, 57.855543, 60.106680
92, 7.089772, 51.671557, 55.466138
93, 7.081001, 50.032026, 52.587825
94, 7.074370, 50.000000, 52.004633
95, 7.067761, 50.000000, 52.000000
96, 7.063888, 57.368177, 58.906455
97, 7.054386, 51.489282, 54.373027
98, 7.047114, 50.030508, 52.182319
99, 7.040481, 50.000000, 52.004895
100, 7.033872, 50.000000, 52.000000
101, 7.030139, 57.560398, 59.062259
102, 7.020588, 51.591292, 54.516571
103, 7.013288, 50.030505, 52.190775
104, 7.006682, 50.000000, 52.006516
105, 7.000107, 50.000000, 52.000000
106, 6.996200, 57.216203, 58.766552
107, 6.986681, 51.371522, 54.278157
108, 6.979507, 50.032043, 52.163389
109, 6.972909, 50.000000, 52.004808
110, 6.966334, 50.000000, 52.000000
111, 6.962560, 57.409018, 58.927316
112, 6.953171, 51.575056, 54.457698
113, 6.945857, 50.027274, 52.198581
114, 6.939288, 50.000000, 52.001490
115, 6.932747, 50.000000, 52.000000
116, 6.928772, 56.910183, 58.503876
117, 6.919183, 51.163072, 54.096061
118, 6.912382, 50.006142, 52.062804
119, 6.905841, 50.000000, 52.000000
120, 6.899300, 50.000000, 52.000000
121, 6.895470, 57.318901, 58.854435
122, 6.886130, 51.490715, 54.381097
123, 6.879000, 50.020897, 52.157821
124, 6.872441, 50.000000, 52.003942
125, 6.865951, 50.000000, 52.000000
126, 6.862079, 57.043452, 58.616424
127, 6.852964, 51.368577, 54.192324
128, 6.845897, 50.030886, 52.161428
129, 6.839440, 50.000000, 52.003859
130, 6.833002, 50.000000, 52.000000
131, 6.829091, 56.970224, 58.553020
132, 6.819911, 51.330299, 54.159161
133, 6.813036, 50.021531, 52.118585
134, 6.806580, 50.000000, 52.003611
135, 6.800142, 50.000000, 52.000000
136, 6.796296, 57.084920, 58.658198
137, 6.786934, 51.278830, 54.169754
138, 6.780047, 50.017826, 52.114213
139, 6.773609, 50.000000, 52.000000
140, 6.767170, 50.000000, 52.000000
141, 6.762744, 56.046529, 57.769930
142, 6.754268, 51.003843, 53.627218
143, 6.747508, 50.016955, 52.086267
144, 6.741053, 50.000000, 52.003364
145, 6.734615, 50.000000, 52.000000
146, 6.730888, 57.262581, 58.807598
147, 6.721761, 51.468073, 54.324734
148, 6.714837, 50.023022, 52.136028
149, 6.708426, 50.000000, 52.001263
150, 6.702021, 50.000000, 52.000000
151, 6.697945, 56.653959, 58.285365
152, 6.689133, 51.241293, 53.996335
153, 6.682220, 50.021849, 52.132821
154, 6.675806, 50.000000, 52.002824
155, 6.669462, 50.000000, 52.000000
156, 6.665625, 56.779778, 58.364890
157, 6.656748, 51.300976, 54.081734
158, 6.649959, 50.011080, 52.107660
159, 6.643623, 50.000000, 52.000000
160, 6.637286, 50.000000, 52.000000
161, 6.633023, 56.065052, 57.762293
162, 6.624321, 50.882197, 53.604145
163, 6.617788, 50.021943, 52.077053
164, 6.611509, 50.000000, 52.002141
165, 6.605241, 50.000000, 52.000000
166, 6.601043, 56.021482, 57.721357
167, 6.592370, 50.904503, 53.640846
168, 6.585879, 50.023304, 52.086946
169, 6.579668, 50.000000, 52.002366
170, 6.573468, 50.000000, 52.000000
171, 6.569574, 56.450143, 58.100425
172, 6.561101, 51.121415, 53.856503
173, 6.554428, 50.015081, 52.123358
174, 6.548252, 50.000000, 52.002179
175, 6.542085, 50.000000, 52.000000
176, 6.537870, 55.875913, 57.607024
177, 6.529704, 50.855606, 53.453582
178, 6.523236, 50.012895, 52.085203
179, 6.517101, 50.000000, 52.000607
180, 6.510969, 50.000000, 52.000000
181, 6.506832, 55.939283, 57.645537
182, 6.498412, 50.855552, 53.538933
183, 6.491975, 50.015694, 52.085896
184, 6.485869, 50.000000, 52.001753
185, 6.479771, 50.000000, 52.000000
186, 6.475737, 56.088295, 57.787974
187, 6.467256, 50.883278, 53.614500
188, 6.460847, 50.019071, 52.086561
189, 6.454741, 50.000000, 52.001587
190, 6.448643, 50.000000, 52.000000
191, 6.444292, 55.514671, 57.280371
192, 6.436159, 50.717388, 53.321162
193, 6.429939, 50.004717, 52.045244
194, 6.423931, 50.000000, 52.000000
195, 6.417970, 50.000000, 52.000000
196, 6.414064, 56.056209, 57.770638
197, 6.405731, 50.772867, 53.459923
198, 6.399631, 50.014712, 52.045355
199, 6.393669, 50.000000, 52.000000
200, 6.387708, 50.000000, 52.000000
201, 6.383752, 55.941503, 57.655704
202, 6.375297, 50.734827, 53.458786
203, 6.369236, 50.000985, 52.021983
204, 6.363274, 50.000000, 52.000000
205, 6.357341, 50.000000, 52.000000
206, 6.353286, 55.522251, 57.278935
207, 6.345357, 50.723758, 53.330183
208, 6.339250, 50.016004, 52.069852
209, 6.333387, 50.000000, 52.000781
210, 6.327560, 50.000000, 52.000000
211, 6.323618, 55.738451, 57.482164
212, 6.315634, 50.718221, 53.359576
213, 6.309666, 50.003259, 52.040749
214, 6.303875, 50.000000, 52.000000
215, 6.298084, 50.000000, 52.000000
216, 6.294117, 55.458743, 57.212562
217, 6.286293, 50.748682, 53.346342
218, 6.280307, 50.013520, 52.056098
219, 6.274548, 50.000000, 52.000408
220, 6.268791, 50.000000, 52.000000
221, 6.264829, 55.457008, 57.228628
222, 6.257083, 50.781983, 53.369517
223, 6.251013, 50.011937, 52.079104
224, 6.245254, 50.000000, 52.000240
225, 6.239556, 50.000000, 52.000000
226, 6.235422, 55.055084, 56.866189
227, 6.228027, 50.623676, 53.145614
228, 6.222206, 50.000613, 52.033150
229, 6.216551, 50.000000, 52.000000
230, 6.210896, 50.000000, 52.000000
231, 6.206982, 55.311530, 57.098953
232, 6.199440, 50.614296, 53.171073
233, 6.193583, 50.012921, 52.056862
234, 6.187928, 50.000000, 52.000000
235, 6.182273, 50.000000, 52.000000
236, 6.178307, 55.224063, 56.990644
237, 6.170800, 50.646658, 53.189993
238, 6.165042, 50.011386, 52.034021
239, 6.159387, 50.000000, 52.000000
240, 6.153732, 50.000000, 52.000000
241, 6.149814, 55.271050, 57.048289
242, 6.142401, 50.659160, 53.196789
243, 6.136617, 50.011265, 52.042168
244, 6.130996, 50.000000, 52.000000
245, 6.125375, 50.000000, 52.000000
246, 6.121315, 54.983774, 56.817446
247, 6.113981, 50.475306, 52.958276
248, 6.108251, 50.011099, 52.042555
249, 6.102664, 50.000000, 52.000000
250, 6.097077, 50.000000, 52.000000
251, 6.093240, 55.423611, 57.200346
252, 6.085746, 50.729334, 53.309750
253, 6.079926, 50.010927, 52.060897
254, 6.074339, 50.000000, 52.000000
255, 6.068752, 50.000000, 52.000000
256, 6.064760, 55.104181, 56.920689
257, 6.057462, 50.584835, 53.075476
258, 6.051728, 50.010187, 52.042019
259, 6.046141, 50.000000, 52.000000
260, 6.040554, 50.000000, 52.000000
261, 6.036454, 54.709725, 56.548697
262, 6.029415, 50.557660, 52.979441
263, 6.023676, 50.010030, 52.042945
264, 6.018089, 50.000000, 52.000000
265, 6.012502, 50.000000, 52.000000
266, 6.008260, 54.617199, 56.487089
267, 6.001100, 50.433928, 52.875967
268, 5.995436, 50.010428, 52.027631
269, 5.989850, 50.000000, 52.000000
270, 5.984263, 50.000000, 52.000000
271, 5.980005, 54.551244, 56.413545
272, 5.973046, 50.515634, 52.914489
273, 5.967311, 50.000028, 52.031104
274, 5.961724, 50.000000, 52.000000
275, 5.956137, 50.000000, 52.000000
276, 5.951828, 54.520258, 56.397489
277, 5.944833, 50.482564, 52.908441
278, 5.939177, 50.010077, 52.032755
279, 5.933624, 50.000000, 52.000000
280, 5.928072, 50.000000, 52.000000
281, 5.923924, 54.801507, 56.660572
282, 5.916887, 50.579557, 53.028719
283, 5.911224, 50.009380, 52.033353
284, 5.905671, 50.000000, 52.000000
285, 5.900129, 50.000000, 52.000000
286, 5.895851, 54.426325, 56.303678
287, 5.888983, 50.473108, 52.864423
288, 5.883410, 50.009738, 52.029215
289, 5.877925, 50.000000, 52.000000
290, 5.872440, 50.000000, 52.000000
291, 5.868192, 54.346896, 56.227463
292, 5.861444, 50.465792, 52.848322
293, 5.855861, 50.009567, 52.031202
294, 5.850376, 50.000000, 52.000000
295, 5.844891, 50.000000, 52.000000
296, 5.840590, 54.098274, 55.978908
297, 5.833800, 50.413288, 52.788611
298, 5.828257, 50.000000, 52.012215
299, 5.822772, 50.000000, 52.000000
300, 5.817287, 50.000000, 52.000000
301, 5.813113, 54.455345, 56.329044
302, 5.806266, 50.428385, 52.810774
303, 5.800696, 50.008226, 52.026850
304, 5.795211, 50.000000, 52.000000
305, 5.789726, 50.000000, 52.000000
306, 5.785467, 54.252448, 56.149757
307, 5.778647, 50.354546, 52.717226
308, 5.773077, 50.009040, 52.027750
309, 5.767592, 50.000000, 52.000000
310, 5.762108, 50.000000, 52.000000
311, 5.757928, 54.460587, 56.328242
312, 5.751000, 50.450012, 52.866292
313, 5.745453, 50.008853, 52.022741
314, 5.739968, 50.000000, 52.000000
315, 5.734483, 50.000000, 52.000000
316, 5.730176, 54.094328, 55.990152
317, 5.723540, 50.404262, 52.730708
318, 5.717996, 50.008689, 52.023780
319, 5.712545, 50.000000, 52.000000
320, 5.707095, 50.000000, 52.000000
321, 5.702977, 54.418737, 56.282897
322, 5.696076, 50.443212, 52.854743
323, 5.690589, 50.007032, 52.022322
324, 5.685173, 50.000000, 52.000000
325, 5.679760, 50.000000, 52.000000
326, 5.675257, 53.439629, 55.398769
327, 5.668823, 50.248314, 52.511572
328, 5.663427, 50.000000, 52.002920
329, 5.658044, 50.000000, 52.000000
330, 5.652662, 50.000000, 52.000000
331, 5.648171, 53.726979, 55.686502
332, 5.641734, 50.295307, 52.585297
333, 5.636303, 50.008145, 52.019121
334, 5.630920, 50.000000, 52.000000
335, 5.625538, 50.000000, 52.000000
336, 5.621150, 53.843717, 55.784814
337, 5.614527, 50.286420, 52.624238
338, 5.609103, 50.007025, 52.016247
339, 5.603721, 50.000000, 52.000000
340, 5.598338, 50.000000, 52.000000
341, 5.593866, 53.679500, 55.636378
342, 5.587405, 50.295871, 52.586014
343, 5.581976, 50.007387, 52.017869
344, 5.576595, 50.000000, 52.000000
345, 5.571248, 50.000000, 52.000000
346, 5.566938, 53.658093, 55.572441
347, 5.560464, 50.313107, 52.630128
348, 5.555104, 50.000000, 52.009484
349, 5.549790, 50.000000, 52.000000
350, 5.544502, 50.000000, 52.000000
351, 5.540044, 53.469962, 55.441232
352, 5.533785, 50.246709, 52.511041
353, 5.528465, 50.007412, 52.016610
354, 5.523197, 50.000000, 52.000000
355, 5.517951, 50.000000, 52.000000
356, 5.513492, 53.504853, 55.502130
357, 5.507418, 50.272909, 52.495534
358, 5.502154, 50.007227, 52.018091
359, 5.496948, 50.000000, 52.000000
360, 5.491803, 50.000000, 52.000000
361, 5.487565, 53.487493, 55.459050
362, 5.481402, 50.266662, 52.539955
363, 5.476290, 50.000000, 52.000499
364, 5.471180, 50.000000, 52.000000
365, 5.466070, 50.000000, 52.000000
366, 5.461609, 53.099533, 55.128444
367, 5.455796, 50.205381, 52.395701
368, 5.450679, 50.006846, 52.016091
369, 5.445603, 50.000000, 52.000000
370, 5.440527, 50.000000, 52.000000
371, 5.436357, 53.386462, 55.359025
372, 5.430255, 50.232865, 52.500315
373, 5.425133, 50.006657, 52.016924
374, 5.420057, 50.000000, 52.000000
375, 5.414982, 50.000000, 52.000000
376, 5.410865, 53.521442, 55.480897
377, 5.404767, 50.241362, 52.511358
378, 5.399650, 50.006467, 52.015742
379, 5.394582, 50.000000, 52.000000
380, 5.389540, 50.000000, 52.000000
381, 5.385218, 53.128792, 55.130032
382, 5.379442, 50.248968, 52.445807
383, 5.374378, 50.005979, 52.015861
384, 5.369370, 50.000000, 52.000000
385, 5.364362, 50.000000, 52.000000
386, 5.360143, 53.198298, 55.191533
387, 5.354350, 50.243377, 52.450498
388, 5.349334, 50.006083, 52.015633
389, 5.344384, 50.000000, 52.000000
390, 5.339445, 50.000000, 52.000000
391, 5.335214, 52.926647, 54.927182
392, 5.329527, 50.144026, 52.336035
393, 5.324621, 50.000000, 52.000032
394, 5.319734, 50.000000, 52.000000
395, 5.314896, 50.000000, 52.000000
396, 5.310680, 52.741292, 54.781742
397, 5.305244, 50.144379, 52.287795
398, 5.300365, 50.004975, 52.014246
399, 5.295528, 50.000000, 52.000000
400, 5.290690, 50.000000, 52.000000
401, 5.286635, 53.152817, 55.153015
402, 5.280984, 50.226415, 52.433331
403, 5.276105, 50.005503, 52.014857
404, 5.271289, 50.000000, 52.000000
405, 5.266485, 50.000000, 52.000000
406, 5.262297, 52.798577, 54.827790
407, 5.256812, 50.160700, 52.329433
408, 5.252008, 50.004621, 52.013900
409, 5.247273, 50.000000, 52.000000
410, 5.242538, 50.000000, 52.000000
411, 5.238653, 53.135097, 55.111161
412, 5.233013, 50.186802, 52.405004
413, 5.228235, 50.005109, 52.014494
414, 5.223500, 50.000000, 52.000000
415, 5.218765, 50.000000, 52.000000
416, 5.214701, 52.871375, 54.896028
417, 5.209180, 50.180766, 52.382340
418, 5.204403, 50.004909, 52.014311
419, 5.199668, 50.000000, 52.000000
420, 5.194947, 50.000000, 52.000000
421, 5.191003, 52.925824, 54.913713
422, 5.185538, 50.201403, 52.394657
423, 5.180794, 50.004708, 52.014126
424, 5.176093, 50.000000, 52.000000
425, 5.171392, 50.000000, 52.000000
426, 5.167316, 52.716993, 54.739738
427, 5.161941, 50.143744, 52.307769
428, 5.157197, 50.003804, 52.013267
429, 5.152496, 50.000000, 52.000000
430, 5.147794, 50.000000, 52.000000
431, 5.143710, 52.652734, 54.679032
432, 5.138417, 50.167267, 52.319039
433, 5.133672, 50.003616, 52.013093
434, 5.128971, 50.000000, 52.000000
435, 5.124270, 50.000000, 52.000000
436, 5.120355, 52.879839, 54.865092
437, 5.114955, 50.204828, 52.390757
438, 5.110246, 50.003527, 52.012830
439, 5.105579, 50.000000, 52.000000
440, 5.100911, 50.000000, 52.000000
441, 5.096795, 52.573541, 54.608947
442, 5.091557, 50.116215, 52.251055
443, 5.086847, 50.003756, 52.013250
444, 5.082179, 50.000000, 52.000000
445, 5.077512, 50.000000, 52.000000
446, 5.073409, 52.544792, 54.581947
447, 5.068131, 50.155768, 52.306001
448, 5.063447, 50.003677, 52.013179
449, 5.058814, 50.000000, 52.000000
450, 5.054181, 50.000000, 52.000000
451, 5.050116, 52.479593, 54.492164
452, 5.044846, 50.150444, 52.307740
453, 5.040170, 50.003467, 52.012986
454, 5.035537, 50.000000, 52.000000
455, 5.030928, 50.000000, 52.000000
456, 5.026734, 52.251381, 54.307346
457, 5.021676, 50.116166, 52.221989
458, 5.017050, 50.003255, 52.012791
459, 5.012485, 50.000000, 52.000000
460, 5.007949, 50.000000, 52.000000
461, 5.004023, 52.467062, 54.498424
462, 4.998908, 50.107467, 52.249479
463, 4.994367, 50.002466, 52.012038
464, 4.989871, 50.000000, 52.000000
465, 4.985404, 50.000000, 52.000000
466, 4.981339, 52.178175, 54.229444
467, 4.976482, 50.102501, 52.194973
468, 4.972009, 50.002825, 52.012396
469, 4.967581, 50.000000, 52.000000
470, 4.963152, 50.000000, 52.000000
471, 4.959126, 52.272831, 54.334697
472, 4.954137, 50.114431, 52.239862
473, 4.949665, 50.002607, 52.012196
474, 4.945236, 50.000000, 52.000000
475, 4.940811, 50.000000, 52.000000
476, 4.936841, 52.182180, 54.223785
477, 4.931879, 50.118182, 52.249046
478, 4.927441, 50.002106, 52.011420
479, 4.923047, 50.000000, 52.000000
480, 4.918652, 50.000000, 52.000000
481, 4.914538, 51.868161, 53.939586
482, 4.909832, 50.063996, 52.146108
483, 4.905461, 50.002175, 52.011793
484, 4.901135, 50.000000, 52.000000
485, 4.896808, 50.000000, 52.000000
486, 4.892909, 52.105902, 54.172139
487, 4.888084, 50.122458, 52.247314
488, 4.883764, 50.001970, 52.011601
489, 4.879505, 50.000000, 52.000000
490, 4.875247, 50.000000, 52.000000
491, 4.871278, 51.866482, 53.941592
492, 4.866657, 50.088758, 52.178720
493, 4.862388, 50.001772, 52.011412
494, 4.858164, 50.000000, 52.000000
495, 4.853962, 50.000000, 52.000000
496, 4.850308, 52.232673, 54.270297
497, 4.845583, 50.092867, 52.219777
498, 4.841404, 50.001579, 52.011222
499, 4.837282, 50.000000, 52.000000
500, 4.833160, 50.000000, 52.000000
501, 4.829391, 51.936423, 53.989595
502, 4.824820, 50.092626, 52.195666
503, 4.820688, 50.001385, 52.011031
504, 4.816600, 50.000000, 52.000000
505, 4.812512, 50.000000, 52.000000
506, 4.808731, 51.957564, 54.042403
507, 4.804265, 50.088435, 52.172880
508, 4.800132, 50.001190, 52.010841
509, 4.796044, 50.000000, 52.000000
510, 4.791971, 50.000000, 52.000000
511, 4.788354, 51.994906, 54.031893
512, 4.783802, 50.092782, 52.204585
513, 4.779703, 50.000993, 52.010652
514, 4.775649, 50.000000, 52.000000
515, 4.771612, 50.000000, 52.000000
516, 4.767931, 52.003218, 54.072629
517, 4.763478, 50.087731, 52.184716
518, 4.759414, 50.000796, 52.010462
519, 4.755428, 50.000000, 52.000000
520, 4.751442, 50.000000, 52.000000
521, 4.747832, 51.999472, 54.063907
522, 4.743371, 50.090401, 52.195544
523, 4.739340, 50.000597, 52.010270
524, 4.735354, 50.000000, 52.000000
525, 4.731369, 50.000000, 52.000000
526, 4.727634, 51.709947, 53.803954
527, 4.723463, 50.069344, 52.133357
528, 4.719543, 50.000139, 52.009744
529, 4.715694, 50.000000, 52.000000
530, 4.711844, 50.000000, 52.000000
531, 4.708363, 51.752659, 53.785113
532, 4.704099, 50.077247, 52.175977
533, 4.700240, 50.000133, 52.009487
534, 4.696424, 50.000000, 52.000000
535, 4.692609, 50.000000, 52.000000
536, 4.689063, 51.653962, 53.711845
537, 4.684953, 50.067151, 52.132845
538, 4.681122, 50.000000, 52.003270
539, 4.677307, 50.000000, 52.000000
540, 4.673491, 50.000000, 52.000000
541, 4.669909, 51.572449, 53.635568
542, 4.665757, 50.062271, 52.136241
543, 4.661897, 50.000000, 52.009510
544, 4.658115, 50.000000, 52.000000
545, 4.654333, 50.000000, 52.000000
546, 4.650831, 51.738198, 53.798517
547, 4.646664, 50.044323, 52.128240
548, 4.642908, 50.000000, 52.000000
549, 4.639161, 50.000000, 52.000000
