MODEL SETTING
SlowTwitchFibersPercentage, DaysBetweenWorkout, HourseOfSleep, Intensity, Lift
30, 5, 8.000000, 95, true

Tic, MuscleMass, Anabolic, Catabolic
0, 20.960115, 50.000000, 52.000000
1, 20.980617, 85.326341, 78.560390
2, 21.004677, 79.972481, 72.624341
3, 21.032632, 74.723091, 66.821196
4, 21.064902, 69.584864, 61.168468
5, 21.100875, 64.563653, 55.900933
6, 21.148664, 101.398776, 83.785096
7, 21.200929, 95.771907, 77.746786
8, 21.254330, 90.239773, 71.836826
9, 21.306905, 84.807219, 66.063210
10, 21.358363, 79.478540, 60.433908
11, 21.414622, 116.563107, 88.604749
12, 21.469991, 110.720933, 82.481505
13, 21.524414, 104.965014, 76.481611
14, 21.577835, 99.299105, 70.612253
15, 21.630194, 93.726652, 64.880685
16, 21.686926, 129.435775, 92.025009
17, 21.742796, 123.436742, 85.849517
18, 21.797750, 117.517526, 79.793533
19, 21.851736, 111.681467, 73.864014
20, 21.904698, 105.931554, 68.067853
21, 21.962041, 143.301469, 96.590508
22, 22.018553, 137.149598, 90.343726
23, 22.074185, 131.072107, 84.212415
24, 22.128889, 125.071718, 78.202846
25, 22.182612, 119.150957, 72.321363
26, 22.240401, 155.554056, 100.118532
27, 22.297385, 149.282354, 93.822936
28, 22.353517, 143.080428, 87.639191
29, 22.408751, 136.950868, 81.573543
30, 22.463036, 130.895949, 75.632061
31, 22.521179, 166.668504, 102.968189
32, 22.578534, 160.297791, 96.636206
33, 22.635058, 153.993442, 90.413710
34, 22.690705, 147.757735, 84.306590
35, 22.745430, 141.592702, 78.320623
36, 22.804050, 178.920531, 106.928670
37, 22.861905, 172.447249, 100.543334
38, 22.918953, 166.037092, 94.264596
39, 22.975152, 159.692022, 88.097886
40, 23.030460, 153.413831, 82.048602
41, 23.089700, 192.444759, 112.300503
42, 23.148202, 185.865506, 105.842435
43, 23.205929, 179.346169, 99.487190
44, 23.262843, 172.888442, 93.239736
45, 23.318903, 166.493911, 87.105064
46, 23.378662, 198.914413, 117.029494
47, 23.437707, 192.294336, 110.512203
48, 23.496002, 185.732923, 104.094662
49, 23.553512, 179.231619, 97.781473
50, 23.610200, 172.791868, 91.577270
51, 23.670284, 199.328552, 120.170931
52, 23.729671, 192.719520, 113.620903
53, 23.788326, 186.168907, 107.168148
54, 23.846216, 179.678146, 100.817359
55, 23.903302, 173.248676, 94.573058
56, 23.963860, 199.841687, 124.773662
57, 24.023740, 193.242662, 118.170399
58, 24.082909, 186.701890, 111.662004
59, 24.141336, 180.220729, 105.252662
60, 24.198987, 173.800592, 98.946565
61, 24.259916, 199.710798, 128.519800
62, 24.320184, 193.127169, 121.877324
63, 24.379760, 186.601663, 115.327334
64, 24.438614, 180.135639, 108.873890
65, 24.496713, 173.730507, 102.521005
66, 24.557926, 199.745498, 131.420415
67, 24.618490, 193.175766, 124.750553
68, 24.678376, 186.663996, 118.171396
69, 24.737554, 180.211544, 111.686954
70, 24.795994, 173.819811, 105.301110
71, 24.857603, 199.676792, 135.649901
72, 24.918580, 193.121759, 128.937016
73, 24.978895, 186.624529, 122.312783
74, 25.038523, 180.186469, 115.780890
75, 25.097433, 173.808982, 109.344997
76, 25.159329, 199.624089, 139.314342
77, 25.220651, 193.083470, 132.567050
78, 25.281330, 186.600513, 125.906381
79, 25.341338, 180.176583, 119.335983
80, 25.400645, 173.813079, 112.859393
81, 25.462847, 199.776200, 143.742577
82, 25.524576, 193.248135, 136.951975
83, 25.585683, 186.777586, 130.246100
84, 25.646137, 180.365894, 123.628289
85, 25.705910, 174.014440, 117.101856
86, 25.768089, 199.646615, 148.281509
87, 25.830123, 193.133418, 141.448570
88, 25.891650, 186.677596, 134.698246
89, 25.952543, 180.280502, 128.033746
90, 26.012775, 173.943519, 121.458239
91, 26.073478, 199.776545, 152.139449
92, 26.135016, 193.275788, 145.273220
93, 26.196661, 186.832234, 138.487826
94, 26.257890, 180.447239, 131.786410
95, 26.318501, 174.122178, 125.172014
96, 26.376448, 199.848310, 156.656609
97, 26.436306, 193.360250, 149.750520
98, 26.497163, 186.929172, 142.923441
99, 26.558306, 180.556452, 136.178341
100, 26.619240, 174.243485, 129.518130
101, 26.673009, 199.394276, 160.315153
102, 26.729419, 192.922996, 153.379798
103, 26.787935, 186.508431, 146.521780
104, 26.847765, 180.152045, 139.744072
105, 26.908240, 173.855291, 133.049529
106, 26.956354, 199.889768, 164.948910
107, 27.007030, 193.426402, 157.973824
108, 27.060279, 187.019338, 151.074340
109, 27.116029, 180.670011, 144.253202
110, 27.173785, 174.379903, 137.513145
111, 27.215083, 199.754818, 169.490095
112, 27.258741, 193.303586, 162.477492
113, 27.304830, 186.908258, 155.538506
114, 27.353451, 180.570269, 148.675859
115, 27.404658, 174.291105, 141.892203
116, 27.441551, 199.675659, 172.520663
117, 27.480597, 193.234621, 165.485594
118, 27.521943, 186.849204, 158.522808
119, 27.565715, 180.520843, 151.635024
120, 27.612023, 174.251015, 144.824848
121, 27.642914, 199.764172, 176.788119
122, 27.675793, 193.330815, 169.717589
123, 27.710812, 186.952724, 162.717875
124, 27.748109, 180.631321, 155.791525
125, 27.787829, 174.368076, 148.941021
126, 27.812590, 199.722936, 181.131005
127, 27.839142, 193.296993, 174.024404
128, 27.867626, 186.925979, 166.987089
129, 27.898173, 180.611313, 160.021482
130, 27.930918, 174.354460, 153.129972
131, 27.951942, 199.446565, 183.650908
132, 27.974621, 193.028723, 176.525762
133, 27.999101, 186.665621, 169.468824
134, 28.025506, 180.358697, 162.482568
135, 28.053965, 174.109414, 155.569350
136, 28.069645, 199.823564, 187.891527
137, 28.086836, 193.407350, 180.730298
138, 28.105668, 187.045589, 173.636069
139, 28.126250, 180.739668, 166.611142
140, 28.148699, 174.491031, 159.657765
141, 28.159323, 199.827783, 191.715010
142, 28.171308, 193.415222, 184.522061
143, 28.184776, 187.056872, 177.394892
144, 28.199828, 180.754110, 170.335755
145, 28.216568, 174.508371, 163.346825
146, 28.223050, 199.770538, 194.866416
147, 28.230771, 193.361103, 187.647702
148, 28.239843, 187.005671, 180.493777
149, 28.250361, 180.705632, 173.406835
150, 28.262419, 174.462420, 166.389003
151, 28.263777, 199.836065, 198.874832
152, 28.266243, 193.427760, 191.621779
153, 28.269911, 187.073226, 184.432440
154, 28.274861, 180.773839, 177.308872
155, 28.281178, 174.531026, 170.253110
156, 28.278581, 199.819475, 202.039527
157, 28.276973, 193.411933, 194.760011
158, 28.276447, 187.057999, 187.543272
159, 28.277078, 180.759042, 180.391361
160, 28.278944, 174.516485, 173.306270
161, 28.274545, 199.451849, 203.134775
162, 28.271070, 193.047322, 195.846084
163, 28.268615, 186.696345, 188.619689
164, 28.267257, 180.400326, 181.457709
165, 28.267070, 174.160702, 174.362150
166, 28.258221, 199.810681, 207.073857
167, 28.250199, 193.402460, 199.750974
168, 28.243076, 187.047591, 192.489559
169, 28.236914, 180.747444, 185.291531
170, 28.231777, 174.503437, 178.158796
171, 28.219396, 199.792210, 210.026727
172, 28.207730, 193.382605, 202.678547
173, 28.196850, 187.026226, 195.390987
174, 28.186816, 180.724439, 188.165956
175, 28.177687, 174.478661, 181.005336
176, 28.162054, 199.471856, 212.428988
177, 28.147046, 193.062723, 205.059561
178, 28.132729, 186.706719, 197.750076
179, 28.119157, 180.405243, 190.502441
180, 28.106384, 174.159721, 183.318514
181, 28.087413, 199.741900, 215.546849
182, 28.068977, 193.327486, 208.149741
183, 28.051137, 186.966064, 200.811854
184, 28.033942, 180.659007, 193.535044
185, 28.017437, 174.407733, 186.321116
186, 27.996146, 199.770782, 217.615692
187, 27.975325, 193.352448, 210.199471
188, 27.955028, 186.987045, 202.841984
189, 27.935302, 180.675940, 195.545049
190, 27.916189, 174.420548, 188.310445
191, 27.892865, 199.786563, 219.370706
192, 27.869950, 193.363932, 211.937071
193, 27.847504, 186.994177, 204.561724
194, 27.825569, 180.678662, 197.246508
195, 27.804183, 174.418802, 189.993185
196, 27.777127, 199.742329, 222.588326
197, 27.750388, 193.315384, 215.125724
198, 27.724014, 186.941195, 207.720713
199, 27.698038, 180.621131, 200.375041
200, 27.672493, 174.356609, 193.090426
201, 27.643333, 199.761116, 224.475777
202, 27.614431, 193.328539, 216.994194
203, 27.585831, 186.948674, 209.569773
204, 27.557564, 180.622887, 202.204244
205, 27.529660, 174.352597, 194.899305
206, 27.498378, 199.819948, 226.433530
207, 27.467302, 193.380934, 218.932121
208, 27.436471, 186.994579, 211.487485
209, 27.405911, 180.662246, 204.101319
210, 27.375648, 174.385354, 196.775289
211, 27.342211, 199.567944, 228.105989
212, 27.308923, 193.124647, 220.586897
213, 27.275814, 186.733967, 213.124163
214, 27.242909, 180.397300, 205.719477
215, 27.210229, 174.116080, 198.374499
216, 27.175150, 199.738195, 229.782443
217, 27.140170, 193.286458, 222.244958
218, 27.105323, 186.887324, 214.763509
219, 27.070630, 180.542168, 207.339768
220, 27.036111, 174.252412, 199.975375
221, 26.999134, 199.890592, 231.694516
222, 26.962210, 193.430173, 224.136742
223, 26.925366, 187.022323, 216.634663
224, 26.888619, 180.668399, 209.189906
225, 26.851985, 174.369823, 201.804080
226, 26.813565, 199.613504, 232.714600
227, 26.775153, 193.147597, 225.143094
228, 26.736776, 186.734265, 217.627013
229, 26.698450, 180.374902, 210.168013
230, 26.660189, 174.070941, 202.767705
231, 26.621582, 199.817212, 233.118698
232, 26.582974, 193.341411, 225.537569
233, 26.544393, 186.918214, 218.011842
234, 26.505853, 180.549000, 210.543152
235, 26.467367, 174.235203, 203.133107
236, 26.429615, 199.681675, 232.170751
237, 26.391876, 193.198747, 224.590065
238, 26.354183, 186.768535, 217.064978
239, 26.316552, 180.392435, 209.597185
240, 26.278998, 174.071886, 202.188318
241, 26.242158, 199.802489, 231.447345
242, 26.205358, 193.310404, 223.865337
243, 26.168629, 186.871132, 216.339205
244, 26.131988, 180.486058, 208.870624
245, 26.095449, 174.156625, 201.461224
246, 26.060103, 199.665335, 229.932790
247, 26.024826, 193.166462, 222.355887
248, 25.989653, 186.720539, 214.835181
249, 25.954605, 180.328970, 207.372403
250, 25.919701, 173.993208, 199.969217
251, 25.885057, 199.705112, 229.333149
252, 25.850500, 193.198214, 221.754558
253, 25.816066, 186.744344, 214.232367
254, 25.781774, 180.344913, 206.768305
255, 25.747644, 174.001376, 199.364041
256, 25.712863, 199.875189, 229.647282
257, 25.678166, 193.359235, 222.060148
258, 25.643586, 186.896349, 214.529446
259, 25.609141, 180.487922, 207.056857
260, 25.574851, 174.135410, 199.644041
261, 25.541725, 199.364939, 227.597698
262, 25.508715, 192.845675, 220.020332
263, 25.475858, 186.379647, 212.499770
264, 25.443177, 179.968313, 205.037795
265, 25.410695, 173.613147, 197.636119
266, 25.379602, 199.733013, 226.159511
267, 25.348678, 193.203352, 218.587014
268, 25.317963, 186.727060, 211.071797
269, 25.287482, 180.305552, 203.615619
270, 25.257262, 173.940297, 196.220199
271, 25.226747, 199.822733, 225.738284
272, 25.196420, 193.285436, 218.163461
273, 25.166316, 186.801573, 210.646105
274, 25.136462, 180.372556, 203.187947
275, 25.106882, 173.999858, 195.790711
276, 25.078731, 199.608612, 223.386514
277, 25.050822, 193.066385, 215.824406
278, 25.023201, 186.577775, 208.320300
279, 24.995900, 180.144223, 200.876029
280, 24.968946, 173.767211, 193.493355
281, 24.942289, 199.470356, 221.905002
282, 24.915913, 192.923076, 214.349389
283, 24.889865, 186.429536, 206.852161
284, 24.864178, 179.991196, 199.415167
285, 24.838884, 173.609548, 192.040198
286, 24.813585, 199.479970, 220.721770
287, 24.788606, 192.926725, 213.170699
288, 24.763993, 186.427322, 205.678362
289, 24.739781, 179.983230, 198.246619
290, 24.716003, 173.595950, 190.877277
291, 24.692831, 199.457917, 218.840075
292, 24.670033, 192.899259, 211.299300
293, 24.647661, 186.394595, 203.817773
294, 24.625753, 179.945396, 196.397380
295, 24.604345, 173.553167, 189.039955
296, 24.584139, 199.245238, 216.054876
297, 24.564388, 192.683357, 208.532327
298, 24.545146, 186.175641, 201.069712
299, 24.526457, 179.723608, 193.668994
300, 24.508363, 173.328781, 186.332057
301, 24.489443, 199.807253, 215.533738
302, 24.471019, 193.236144, 208.011462
303, 24.453145, 186.719276, 200.549458
304, 24.435864, 180.258098, 193.149614
305, 24.419222, 173.854113, 185.813805
306, 24.400683, 199.729530, 215.126523
307, 24.382650, 193.154941, 207.604238
308, 24.365177, 186.634650, 200.142356
309, 24.348309, 180.170113, 192.742769
310, 24.332091, 173.762841, 185.407359
311, 24.316968, 199.397316, 211.881889
312, 24.302436, 192.821591, 204.382823
313, 24.288560, 186.300389, 196.944926
314, 24.275392, 179.835209, 189.570210
315, 24.262983, 173.427577, 182.260623
316, 24.249901, 199.555210, 210.318406
317, 24.237475, 192.975022, 202.829448
318, 24.225769, 186.449461, 195.402190
319, 24.214838, 179.980023, 188.038632
320, 24.204737, 173.568234, 180.740734
321, 24.192878, 199.803814, 209.576151
322, 24.181711, 193.218814, 202.091212
323, 24.171300, 186.688520, 194.668284
324, 24.161700, 180.214392, 187.309327
325, 24.152968, 173.797952, 180.016299
326, 24.143103, 199.333203, 207.478003
327, 24.133973, 192.749854, 200.009039
328, 24.125651, 186.221368, 192.602514
329, 24.118198, 179.749257, 185.260502
330, 24.111676, 173.335059, 177.985023
331, 24.102844, 199.485358, 206.761766
332, 24.094781, 192.898859, 199.297053
333, 24.087557, 186.367270, 191.895052
334, 24.081235, 179.892093, 184.557804
335, 24.075877, 173.474864, 177.287331
336, 24.068018, 199.630511, 206.084877
337, 24.060954, 193.041153, 198.624249
338, 24.054760, 186.506755, 191.226550
339, 24.049501, 180.028805, 183.893844
340, 24.045242, 173.608837, 176.628161
341, 24.038697, 199.573404, 204.933129
342, 24.032985, 192.983180, 197.480947
343, 24.028185, 186.447991, 190.092018
344, 24.024362, 179.969336, 182.768429
345, 24.021584, 173.548755, 175.512232
346, 24.015118, 199.815454, 205.083654
347, 24.009501, 193.222082, 197.629007
348, 24.004803, 186.683746, 190.237707
349, 24.001088, 180.201917, 182.911770
350, 23.998422, 173.778127, 175.653224
351, 23.992132, 199.621149, 204.761828
352, 23.986681, 193.028365, 197.309251
353, 23.982148, 186.490647, 189.919990
354, 23.978600, 180.009492, 182.596142
355, 23.976108, 173.586437, 175.339768
356, 23.970440, 199.587928, 204.221745
357, 23.965628, 192.994428, 196.772930
358, 23.961754, 186.456038, 189.387589
359, 23.958886, 179.974259, 182.067833
360, 23.957093, 173.550630, 174.815730
361, 23.953480, 199.540270, 202.526615
362, 23.950784, 192.946406, 195.091705
363, 23.949088, 186.407765, 187.720768
364, 23.948464, 179.925855, 180.415941
365, 23.948987, 173.502219, 173.179319
366, 23.946247, 199.664353, 201.937617
367, 23.944454, 193.069144, 194.507362
368, 23.943691, 186.529192, 187.141312
369, 23.944031, 180.045991, 179.841585
370, 23.945547, 173.621084, 172.610275
371, 23.944316, 199.634924, 200.686320
372, 23.944077, 193.039934, 193.266653
373, 23.944916, 186.500276, 185.911558
374, 23.946909, 180.017450, 178.623180
375, 23.950133, 173.593002, 171.403635
376, 23.950956, 199.571923, 199.011350
377, 23.952828, 192.977817, 191.606603
378, 23.955840, 186.439136, 184.266884
379, 23.960071, 179.957398, 176.994390
380, 23.965605, 173.534153, 169.791272
381, 23.967089, 199.759061, 198.658377
382, 23.969643, 193.164172, 191.257155
383, 23.973358, 186.624736, 183.921122
384, 23.978314, 180.142242, 176.652442
385, 23.984595, 173.718230, 169.453263
386, 23.986901, 199.578698, 197.842482
387, 23.990300, 192.986358, 190.449305
388, 23.994887, 186.449513, 183.121514
389, 24.000743, 179.969671, 175.861310
390, 24.007955, 173.548381, 168.670862
391, 24.010368, 199.754163, 197.932576
392, 24.013880, 193.161507, 190.539518
393, 24.018583, 186.624328, 183.211860
394, 24.024557, 180.144116, 175.951772
395, 24.031891, 173.722413, 168.761413
396, 24.034896, 199.771883, 197.474179
397, 24.039019, 193.180327, 190.086030
398, 24.044352, 186.644259, 182.763413
399, 24.050980, 180.165169, 175.508507
400, 24.058988, 173.744601, 168.323480
401, 24.061825, 199.796590, 197.637004
402, 24.065777, 193.206161, 190.248548
403, 24.070937, 186.671206, 182.925594
404, 24.077385, 180.193204, 175.670305
405, 24.085209, 173.773698, 168.484836
406, 24.088675, 199.622495, 196.966687
407, 24.093269, 193.034863, 189.585139
408, 24.099086, 186.502746, 182.269211
409, 24.106211, 180.027641, 175.021111
410, 24.114735, 173.611089, 167.843017
411, 24.117909, 199.657225, 197.233940
412, 24.122212, 193.070812, 189.851307
413, 24.127735, 186.539865, 182.534256
414, 24.134558, 180.065885, 175.284960
415, 24.142771, 173.650419, 168.105582
416, 24.147074, 199.176568, 195.928212
417, 24.152529, 192.595755, 188.558805
418, 24.159234, 186.070471, 181.255191
419, 24.167274, 179.602272, 174.019643
420, 24.176742, 173.192722, 166.854378
421, 24.183379, 199.381528, 194.320927
422, 24.191233, 192.800700, 186.967065
423, 24.200409, 186.275499, 179.679514
424, 24.211000, 179.807457, 172.460571
425, 24.223100, 173.398129, 165.312474
426, 24.231920, 199.173664, 192.440194
427, 24.242019, 192.596964, 185.105035
428, 24.253507, 186.076001, 177.836681
429, 24.266483, 179.612329, 170.637504
430, 24.281047, 173.207506, 163.509784
431, 24.290291, 199.707707, 192.602443
432, 24.300833, 193.129289, 185.267704
433, 24.312780, 186.606569, 177.999853
434, 24.326229, 180.141036, 170.801175
435, 24.341283, 173.734230, 163.673924
436, 24.350287, 199.790166, 192.827980
437, 24.360589, 193.213955, 185.493184
438, 24.372295, 186.693392, 178.225239
439, 24.385500, 180.229957, 171.026401
440, 24.400304, 173.825189, 163.898906
441, 24.408664, 199.458032, 193.023764
442, 24.418299, 192.887492, 185.689784
443, 24.429315, 186.372554, 178.422458
444, 24.441809, 179.914739, 171.224089
445, 24.455880, 173.515595, 164.096932
446, 24.463533, 199.764778, 193.847199
447, 24.472449, 193.194244, 186.507736
448, 24.482729, 186.679237, 179.234777
449, 24.494466, 180.221239, 172.030548
450, 24.507757, 173.821784, 164.897266
451, 24.514437, 199.659649, 194.504797
452, 24.522344, 193.092453, 187.161554
453, 24.531582, 186.580721, 179.884519
454, 24.542242, 180.125941, 172.675936
455, 24.554420, 173.729650, 165.538023
456, 24.560865, 199.613414, 194.634350
457, 24.568532, 193.048810, 187.291661
458, 24.577524, 186.539649, 180.015122
459, 24.587931, 180.087422, 172.806981
460, 24.599847, 173.693663, 165.669443
461, 24.606372, 199.799043, 194.760380
462, 24.614116, 193.235032, 187.418327
463, 24.623185, 186.726443, 180.142380
464, 24.633669, 180.274740, 172.934778
465, 24.645664, 173.881448, 165.797722
466, 24.652723, 199.696632, 194.247953
467, 24.661019, 193.135716, 186.912246
468, 24.670657, 186.630223, 179.642767
469, 24.681730, 180.181636, 172.441770
470, 24.694334, 173.791485, 165.311466
471, 24.700815, 199.786878, 194.761816
472, 24.708529, 193.227492, 187.423188
473, 24.717572, 186.723472, 180.150702
474, 24.728034, 180.276291, 172.946551
475, 24.740008, 173.887474, 165.812918
476, 24.745700, 199.809310, 195.411349
477, 24.752593, 193.251834, 188.068779
478, 24.760788, 186.749677, 180.792107
479, 24.770372, 180.304297, 173.583522
480, 24.781440, 173.917214, 166.445203
481, 24.787466, 199.617473, 194.980189
482, 24.794700, 193.063626, 187.643216
483, 24.803245, 186.565089, 180.372171
484, 24.813191, 180.123353, 173.169300
485, 24.824634, 173.739946, 166.036804
486, 24.830885, 199.363680, 194.552236
487, 24.838339, 192.814021, 187.220682
488, 24.847108, 186.319691, 179.955038
489, 24.857286, 179.882203, 172.757633
490, 24.868970, 173.503091, 165.630700
491, 24.874578, 199.678406, 195.332324
492, 24.881384, 193.128131, 187.995215
493, 24.889491, 186.633113, 180.723917
494, 24.898988, 180.194832, 173.520661
495, 24.909970, 173.814808, 166.387636
496, 24.915504, 199.867583, 195.577294
497, 24.922235, 193.317627, 188.239543
498, 24.930263, 186.822900, 180.967558
499, 24.939680, 180.384852, 173.763543
500, 24.950577, 174.004998, 166.629672
501, 24.955002, 199.556140, 196.145819
502, 24.960596, 193.010717, 188.804740
503, 24.967456, 186.520458, 181.529190
504, 24.975668, 180.086853, 174.321376
505, 24.985324, 173.711428, 167.183470
506, 24.989869, 199.712826, 196.197009
507, 24.995584, 193.167668, 188.856636
508, 25.002567, 186.677668, 181.581785
509, 25.010905, 180.244295, 174.374657
510, 25.020691, 173.869064, 167.237418
511, 25.024773, 199.719189, 196.573501
512, 25.030007, 193.175604, 189.231187
