MODEL SETTING
SlowTwitchFibersPercentage, DaysBetweenWorkout, HourseOfSleep, Intensity, Lift
70, 5, 8.000000, 95, true

Tic, MuscleMass, Anabolic, Catabolic
0, 11.799164, 50.000000, 52.000000
1, 11.813845, 72.575678, 68.383549
2, 11.831815, 66.851270, 62.190867
3, 11.853283, 61.262816, 56.205567
4, 11.868257, 55.835855, 52.514543
5, 11.866086, 51.596083, 52.000000
6, 11.886456, 75.165497, 69.200571
7, 11.910477, 69.390193, 62.978220
8, 11.938596, 63.746352, 56.921035
9, 11.964526, 58.243425, 52.429196
10, 11.969662, 53.163775, 52.000000
11, 11.994828, 76.501217, 69.040052
12, 12.023943, 70.709489, 62.830605
13, 12.057293, 65.047809, 56.806725
14, 12.086981, 59.525411, 52.539379
15, 12.098000, 54.507514, 52.000000
16, 12.127315, 78.234379, 69.371142
17, 12.160486, 72.419860, 63.163592
18, 12.197437, 66.733244, 57.120175
19, 12.231541, 61.183514, 52.619894
20, 12.247376, 55.895027, 52.001468
21, 12.279924, 79.306760, 69.143290
22, 12.316000, 73.484450, 62.952632
23, 12.355396, 67.788791, 56.931338
24, 12.392401, 62.228501, 52.424224
25, 12.411987, 56.886656, 52.003815
26, 12.446846, 80.370896, 69.217406
27, 12.485124, 74.545342, 63.039584
28, 12.526315, 68.844890, 57.072472
29, 12.563244, 63.278217, 52.712736
30, 12.584944, 57.948231, 52.000908
31, 12.621041, 81.282937, 69.111697
32, 12.659890, 75.455476, 62.953864
33, 12.701169, 69.751964, 56.998874
34, 12.739472, 64.180860, 52.585660
35, 12.763787, 58.897005, 52.000000
36, 12.801865, 82.993468, 69.731630
37, 12.842611, 77.148508, 63.565446
38, 12.885747, 71.425340, 57.570387
39, 12.926896, 65.832111, 52.761317
40, 12.955298, 60.425770, 52.000000
41, 12.996491, 86.440470, 71.281278
42, 13.040070, 80.546212, 65.091141
43, 13.085802, 74.770710, 59.057958
44, 13.131471, 69.121334, 53.687360
45, 13.166718, 63.605050, 52.007268
46, 13.212065, 89.426322, 71.176200
47, 13.259470, 83.500729, 65.006163
48, 13.308131, 77.691068, 59.036183
49, 13.354340, 72.004304, 54.006053
50, 13.392170, 66.482710, 52.076365
51, 13.439015, 90.635768, 69.955606
52, 13.487428, 84.711603, 63.830364
53, 13.536355, 78.901983, 57.909484
54, 13.582489, 73.213656, 53.424512
55, 13.620437, 67.661373, 52.051773
56, 13.667857, 94.476569, 72.061972
57, 13.716832, 88.504700, 65.900591
58, 13.766429, 82.643956, 59.894043
59, 13.814770, 76.900560, 54.409776
60, 13.857785, 71.280403, 52.125367
61, 13.908045, 96.870017, 71.209253
62, 13.958769, 90.877986, 65.085875
63, 14.009318, 84.994378, 59.139210
64, 14.058524, 79.225362, 54.004281
65, 14.103776, 73.576659, 52.051765
66, 14.155544, 100.823987, 72.490939
67, 14.207364, 94.784519, 66.363203
68, 14.258513, 88.850478, 60.399958
69, 14.308547, 83.027290, 54.730292
70, 14.356767, 77.320226, 52.082115
71, 14.410048, 104.298889, 72.347101
72, 14.462604, 98.223892, 66.228954
73, 14.514033, 92.251334, 60.265258
74, 14.564240, 86.386434, 54.693587
75, 14.613383, 80.634155, 52.061176
76, 14.667067, 108.102197, 72.752952
77, 14.719750, 101.992161, 66.643295
78, 14.771259, 95.981495, 60.685610
79, 14.821577, 90.075289, 55.218586
80, 14.871009, 84.278258, 52.411612
81, 14.924853, 112.129545, 73.441023
82, 14.977668, 105.980197, 67.331036
83, 15.029322, 99.927541, 61.374867
84, 15.079756, 93.976162, 55.726139
85, 15.129320, 88.130449, 52.467242
86, 15.183357, 117.014922, 74.358559
87, 15.236344, 110.813796, 68.243013
88, 15.288185, 104.706176, 62.276352
89, 15.338809, 98.696295, 56.521414
90, 15.388550, 92.788209, 52.635833
91, 15.442486, 120.630905, 73.747333
92, 15.495351, 114.402295, 67.663844
93, 15.547064, 108.264748, 61.730481
94, 15.597608, 102.222377, 56.216946
95, 15.647434, 96.279063, 53.008163
96, 15.701730, 126.254021, 75.836996
97, 15.754978, 119.967887, 69.720154
98, 15.807104, 113.769655, 63.752782
99, 15.858054, 107.663030, 58.035696
100, 15.907971, 101.651572, 53.413804
101, 15.962181, 130.449569, 75.357121
102, 16.015343, 124.127535, 69.267151
103, 16.067382, 117.890883, 63.328989
104, 16.118231, 111.743168, 57.596692
105, 16.168160, 105.687766, 53.455886
106, 16.222540, 135.607351, 76.325084
107, 16.275882, 129.238416, 70.227095
108, 16.328115, 122.952340, 64.275975
109, 16.379162, 116.752425, 58.489685
110, 16.429152, 110.641801, 53.727435
111, 16.483506, 139.999891, 76.194164
112, 16.536823, 133.596245, 70.114535
113, 16.589030, 127.273277, 64.178436
114, 16.640058, 121.034089, 58.422848
115, 16.690095, 114.881632, 53.929210
116, 16.744816, 146.782262, 78.439858
117, 16.798523, 140.318250, 72.324698
118, 16.851148, 133.932159, 66.350095
119, 16.902617, 127.626759, 60.525030
120, 16.952935, 121.404750, 55.205541
121, 17.007688, 152.097973, 78.792952
122, 17.061436, 145.594674, 72.687689
123, 17.114106, 139.166943, 66.721822
124, 17.165630, 132.817562, 60.918582
125, 17.216143, 126.549110, 56.136549
126, 17.271044, 157.254899, 79.763259
127, 17.324953, 150.714082, 73.657484
128, 17.377804, 144.246697, 67.696774
129, 17.429531, 137.855334, 61.907170
130, 17.480164, 131.542440, 56.708058
131, 17.535248, 162.844961, 80.865820
132, 17.589351, 156.261740, 74.743571
133, 17.642406, 149.749960, 68.757335
134, 17.694343, 143.312034, 62.915892
135, 17.745124, 136.950234, 57.384167
136, 17.800387, 168.748862, 82.050232
137, 17.854679, 162.123395, 75.917518
138, 17.907937, 155.567356, 69.919186
139, 17.960094, 149.083008, 64.068080
140, 18.011121, 142.672485, 58.549683
141, 18.066571, 174.085507, 83.316457
142, 18.121065, 167.424430, 77.171733
143, 18.174538, 160.831030, 71.159596
144, 18.226927, 154.307424, 65.288371
145, 18.278169, 147.855625, 59.614675
146, 18.333877, 179.020911, 85.113294
147, 18.388643, 172.328772, 78.946941
148, 18.442408, 165.702739, 72.911064
149, 18.495109, 159.144792, 67.013590
150, 18.546692, 152.656836, 61.327817
151, 18.602776, 184.212987, 87.702620
152, 18.657941, 177.487751, 81.498318
153, 18.712131, 170.827070, 75.421462
154, 18.765287, 164.232783, 69.483001
155, 18.817345, 157.706694, 63.697318
156, 18.873584, 187.556098, 88.904157
157, 18.928917, 180.816837, 82.691747
158, 18.983285, 174.141052, 76.605192
159, 19.036630, 167.530569, 70.652037
160, 19.088891, 160.987133, 64.854634
161, 19.145321, 191.083675, 90.219310
162, 19.200857, 184.328574, 83.993921
163, 19.255444, 177.635931, 77.899783
164, 19.309026, 171.007483, 71.942078
165, 19.361548, 164.444904, 66.143131
166, 19.418300, 194.428329, 92.624935
167, 19.474175, 187.659891, 86.368588
168, 19.529057, 180.952980, 80.233929
169, 19.582834, 174.309251, 74.227893
170, 19.635572, 167.730310, 68.357564
171, 19.692455, 197.353049, 95.031968
172, 19.748483, 190.575183, 88.743683
173, 19.803607, 183.858062, 82.574549
174, 19.857774, 177.203250, 76.531186
175, 19.910930, 170.612308, 70.626325
176, 19.967909, 198.551019, 96.907815
177, 20.023978, 191.778625, 90.597905
178, 20.078990, 185.066554, 84.404901
179, 20.132988, 178.416326, 78.335377
180, 20.185899, 171.829471, 72.395907
181, 20.242627, 199.007968, 99.451099
182, 20.298471, 192.247190, 93.108849
183, 20.353459, 185.546434, 86.881162
184, 20.407543, 178.907222, 80.774249
185, 20.460672, 172.331076, 74.794400
186, 20.517371, 198.913462, 101.067903
187, 20.573229, 192.168789, 94.710133
188, 20.628247, 185.483955, 88.465066
189, 20.682380, 178.860498, 82.338948
190, 20.735577, 172.299939, 76.337922
191, 20.792218, 199.135315, 103.552647
192, 20.847643, 192.403762, 97.167223
193, 20.902195, 185.731838, 90.892588
194, 20.955890, 179.121043, 84.734651
195, 21.008681, 172.572883, 78.699300
196, 21.065151, 199.670310, 106.330607
197, 21.120863, 192.948915, 99.910111
198, 21.175516, 186.286948, 93.598243
199, 21.229197, 179.685834, 87.400524
200, 21.282004, 173.147045, 81.322543
201, 21.338254, 199.242940, 108.183719
202, 21.393523, 192.539716, 101.745241
203, 21.447873, 185.895753, 95.413428
204, 21.501414, 179.312526, 89.193864
205, 21.554051, 172.791527, 83.092038
206, 21.610045, 199.559620, 111.207479
207, 21.665324, 192.867955, 104.732258
208, 21.719852, 186.235368, 98.361623
209, 21.773527, 179.663297, 92.100734
210, 21.826247, 173.153208, 85.954784
211, 21.882460, 199.869891, 115.195219
212, 21.937979, 193.189658, 108.670223
213, 21.992553, 186.568328, 102.247255
214, 22.046184, 180.007281, 95.931019
215, 22.099022, 173.507964, 89.726359
216, 22.155041, 199.798614, 118.368107
217, 22.209905, 193.132865, 111.807352
218, 22.264031, 186.525823, 105.346178
219, 22.317427, 179.978890, 98.989211
220, 22.369790, 173.493518, 92.741118
221, 22.425215, 199.742113, 122.096757
222, 22.479942, 193.090420, 115.493339
223, 22.533811, 186.497273, 108.987149
224, 22.586775, 179.964067, 102.582567
225, 22.638639, 173.492245, 96.284025
226, 22.693347, 199.067107, 123.538913
227, 22.747331, 192.434525, 116.926830
228, 22.800514, 185.860337, 110.410466
229, 22.852664, 179.346015, 103.994402
230, 22.904082, 172.893017, 97.683037
231, 22.958361, 199.435178, 125.657919
232, 23.012032, 192.812372, 119.025621
233, 23.065064, 186.247781, 112.487733
234, 23.117384, 179.742838, 106.048637
235, 23.168521, 173.298990, 99.712589
236, 23.222256, 199.841541, 128.832138
237, 23.275108, 193.228037, 122.165474
238, 23.327043, 186.672554, 115.591614
239, 23.378194, 180.176445, 109.114515
240, 23.428600, 173.741133, 102.738200
241, 23.481708, 199.618502, 131.872151
242, 23.534281, 193.019321, 125.175575
243, 23.586261, 186.478009, 118.569911
244, 23.637307, 179.995961, 112.059082
245, 23.687297, 173.574599, 105.646971
246, 23.739368, 199.586386, 134.498982
247, 23.790781, 192.999629, 127.778422
248, 23.841315, 186.470543, 121.147186
249, 23.890781, 180.000515, 114.609115
250, 23.939121, 173.590957, 108.167986
251, 23.989342, 199.811720, 137.403556
252, 24.039134, 193.234674, 130.654019
253, 24.088468, 186.715093, 123.992342
254, 24.137227, 180.254343, 117.422169
255, 24.184779, 173.853840, 110.947117
256, 24.234144, 199.465347, 140.277110
257, 24.283122, 192.902543, 133.501529
258, 24.331444, 186.397057, 126.812081
259, 24.379058, 179.950285, 120.212411
260, 24.425798, 173.563648, 113.706056
261, 24.473823, 199.589497, 142.656784
262, 24.521841, 193.036561, 135.860603
263, 24.569414, 186.540770, 129.149342
264, 24.616303, 180.103512, 122.526517
265, 24.662351, 173.726199, 115.995562
266, 24.708804, 199.658493, 145.865580
267, 24.755332, 193.115597, 139.039321
268, 24.801568, 186.629654, 132.296539
269, 24.846960, 180.202052, 125.640569
270, 24.891373, 173.834192, 119.074699
271, 24.935395, 199.647669, 148.482414
272, 24.979305, 193.114965, 141.633757
273, 25.023109, 186.639008, 134.867273
274, 25.066582, 180.221179, 128.186247
275, 25.109629, 173.862893, 121.593883
276, 25.152006, 199.200035, 150.236588
277, 25.194486, 192.680779, 143.375737
278, 25.236830, 186.218110, 136.595927
279, 25.279180, 179.813468, 129.900522
280, 25.321207, 173.468296, 123.292721
281, 25.361926, 199.122351, 152.068967
282, 25.402979, 192.612941, 145.194284
283, 25.444300, 186.159985, 138.399837
284, 25.485460, 179.764931, 131.688863
285, 25.526012, 173.429201, 125.064469
286, 25.564772, 199.741264, 155.402039
287, 25.603846, 193.235386, 148.496367
288, 25.643074, 186.785731, 141.669587
289, 25.682424, 180.393678, 134.924764
290, 25.721833, 174.060646, 128.264893
291, 25.757304, 199.710662, 158.907900
292, 25.793536, 193.213337, 151.970435
293, 25.830508, 186.772031, 145.110437
294, 25.867710, 180.388141, 138.330866
295, 25.904941, 174.063088, 131.634609
296, 25.937966, 199.748723, 161.511987
297, 25.972296, 193.258783, 154.552537
298, 26.007191, 186.824694, 147.669446
299, 26.042265, 180.447843, 140.865610
300, 26.077293, 174.129642, 134.143841
301, 26.106731, 199.690471, 164.454743
302, 26.137407, 193.208120, 157.470206
303, 26.169067, 186.781410, 150.560825
304, 26.201713, 180.411745, 143.729439
305, 26.234809, 174.100571, 136.978807
306, 26.260689, 199.882609, 168.200503
307, 26.287610, 193.405115, 161.181973
308, 26.315727, 186.983016, 154.237281
309, 26.344702, 180.617711, 147.369091
310, 26.374476, 174.310636, 140.580043
311, 26.396284, 199.844637, 171.753594
312, 26.419453, 193.373134, 164.703799
313, 26.443880, 186.956822, 157.726501
314, 26.469537, 180.597102, 150.824309
315, 26.496306, 174.295424, 143.999799
316, 26.515221, 199.945269, 175.223191
317, 26.535346, 193.477873, 168.143167
318, 26.556648, 187.065487, 161.134453
319, 26.579115, 180.709495, 154.199563
320, 26.602585, 174.411341, 147.340982
321, 26.618362, 199.804282, 178.303220
322, 26.635123, 193.342351, 171.196565
323, 26.652881, 186.935258, 164.160082
324, 26.671791, 180.584393, 157.196241
325, 26.691828, 174.291203, 150.307469
326, 26.706191, 199.471992, 179.523880
327, 26.721529, 193.016504, 172.408561
328, 26.737814, 186.615776, 165.362794
329, 26.755195, 180.271238, 158.389138
330, 26.773733, 173.984342, 151.490029
331, 26.785823, 199.669249, 182.032791
332, 26.798893, 193.215351, 174.895475
333, 26.812975, 186.816070, 167.826995
334, 26.827889, 180.472818, 160.829767
335, 26.843820, 174.187030, 153.906138
336, 26.853028, 199.849006, 185.435663
337, 26.863306, 193.396311, 178.268739
338, 26.874531, 186.998087, 171.169676
339, 26.886655, 180.655719, 164.140771
340, 26.899749, 174.370640, 157.184297
341, 26.907189, 199.607952, 187.515419
342, 26.915590, 193.159502, 180.331254
343, 26.924950, 186.765448, 173.214120
344, 26.935293, 180.427193, 166.166387
345, 26.946648, 174.146184, 159.190325
346, 26.951139, 199.913862, 191.588989
347, 26.956489, 193.464596, 184.368819
348, 26.962719, 187.069568, 177.214711
349, 26.969816, 180.730150, 170.128815
350, 26.977825, 174.447771, 163.113283
351, 26.980670, 199.693678, 193.928924
352, 26.984359, 193.247486, 186.688372
353, 26.988921, 186.855464, 179.513071
354, 26.994379, 180.519010, 172.405190
355, 27.000753, 174.239559, 165.366870
356, 27.001318, 199.633144, 196.776315
357, 27.002647, 193.188312, 189.511605
358, 27.004747, 186.797553, 182.311361
359, 27.007694, 180.462268, 175.177723
360, 27.011461, 174.183897, 168.112775
361, 27.009554, 199.781060, 199.491006
362, 27.008463, 193.335315, 192.203240
363, 27.008166, 186.943534, 184.979193
364, 27.008655, 180.607104, 177.820959
365, 27.009971, 174.327457, 170.730576
366, 27.005333, 199.814257, 202.204090
367, 27.001575, 193.368080, 194.892841
368, 26.998682, 186.975757, 187.644569
369, 26.996643, 180.638676, 180.461319
370, 26.995477, 174.358272, 173.345097
371, 26.989833, 199.779924, 203.785413
372, 26.985087, 193.333410, 196.459837
373, 26.981203, 186.940725, 189.196838
374, 26.978210, 180.603254, 181.998424
375, 26.976073, 174.322434, 174.866574
376, 26.968311, 199.810684, 205.786450
377, 26.961431, 193.363063, 198.443447
378, 26.955410, 186.969181, 191.162512
379, 26.950247, 180.630430, 183.945628
380, 26.945992, 174.348245, 176.794742
381, 26.936568, 199.665182, 207.261521
382, 26.928010, 193.217533, 199.905330
383, 26.920304, 186.823570, 192.610763
384, 26.913473, 180.484702, 185.379814
385, 26.907574, 174.202375, 178.214422
386, 26.896255, 199.847193, 209.110181
387, 26.885680, 193.396362, 201.737427
388, 26.875909, 186.999142, 194.425872
389, 26.866975, 180.656918, 187.177458
390, 26.858916, 174.371129, 179.994089
391, 26.847494, 199.199334, 208.469944
392, 26.836862, 192.752088, 201.101364
393, 26.827031, 186.358486, 193.793988
394, 26.818042, 180.019994, 186.549844
395, 26.809934, 173.738076, 179.370875
396, 26.797459, 199.738479, 209.924526
397, 26.785654, 193.284530, 202.541837
398, 26.774586, 186.884177, 195.220105
399, 26.764312, 180.538818, 187.961294
400, 26.754892, 174.249895, 180.767302
401, 26.739635, 199.586469, 212.104080
402, 26.725060, 193.131436, 204.701601
403, 26.711184, 186.729909, 197.359499
404, 26.698022, 180.383305, 190.079698
405, 26.685638, 174.093074, 182.864074
406, 26.668960, 199.622779, 213.463067
407, 26.652882, 193.164501, 206.047204
408, 26.637456, 186.759694, 198.691394
409, 26.622717, 180.409767, 191.397560
410, 26.608723, 174.116169, 184.167559
411, 26.589580, 199.895178, 215.866174
412, 26.570976, 193.431297, 208.428089
413, 26.552961, 187.020789, 201.049604
414, 26.535573, 180.665035, 193.732521
415, 26.518856, 174.365475, 186.478642
416, 26.497747, 199.859480, 217.496267
417, 26.477108, 193.392067, 210.041835
418, 26.456992, 186.977979, 202.646556
419, 26.437441, 180.618598, 195.312243
420, 26.418498, 174.315366, 188.040688
421, 26.397024, 199.799914, 217.735043
422, 26.376003, 193.328795, 210.275268
423, 26.355492, 186.911021, 202.874559
424, 26.335532, 180.547984, 195.534756
425, 26.316164, 174.241129, 188.257655
426, 26.293594, 199.649693, 218.527612
427, 26.271449, 193.175514, 211.058180
428, 26.249781, 186.754672, 203.647627
429, 26.228629, 180.388580, 196.297788
430, 26.208034, 174.078690, 189.010452
431, 26.185591, 199.664558, 218.448876
432, 26.163567, 193.185675, 210.976516
433, 26.142019, 186.760172, 203.563040
434, 26.120989, 180.389463, 196.210317
435, 26.100516, 174.075001, 188.920149
436, 26.077004, 199.636233, 219.331383
437, 26.053886, 193.153002, 211.848273
438, 26.031213, 186.723134, 204.423872
439, 26.009024, 180.348056, 197.060020
440, 25.987356, 174.029222, 189.758505
441, 25.962981, 199.732370, 220.184125
442, 25.938979, 193.243476, 212.690367
443, 25.915396, 186.807939, 205.255172
444, 25.892268, 180.427172, 197.880341
445, 25.869632, 174.102633, 190.567649
446, 25.844769, 199.339850, 220.206542
447, 25.820254, 192.849242, 212.708878
448, 25.796136, 186.412042, 205.269674
449, 25.772454, 180.029699, 197.890784
450, 25.749243, 173.703682, 190.574005
451, 25.724063, 199.524887, 220.692621
452, 25.699227, 193.027546, 213.187009
453, 25.674781, 186.583601, 205.739830
454, 25.650759, 180.194503, 198.352905
455, 25.627196, 173.861725, 191.028013
456, 25.601211, 199.815616, 221.712346
457, 25.575548, 193.310439, 214.194326
458, 25.550253, 186.858669, 206.734609
459, 25.525358, 180.461714, 199.334969
460, 25.500896, 174.121034, 191.997163
461, 25.474461, 199.756931, 222.035655
462, 25.448333, 193.246734, 214.510645
463, 25.422561, 186.789971, 207.043876
464, 25.397175, 180.388059, 199.637143
465, 25.372209, 174.042460, 192.292203
466, 25.344928, 199.766470, 222.806632
467, 25.317932, 193.250519, 215.271192
468, 25.291261, 186.788013, 207.793856
469, 25.264946, 180.380366, 200.376376
470, 25.239019, 174.029042, 193.020501
471, 25.212746, 199.710527, 221.863081
472, 25.186780, 193.189248, 214.330418
473, 25.161164, 186.721507, 206.856086
474, 25.135932, 180.308730, 199.441882
475, 25.111116, 173.952388, 192.089572
476, 25.085508, 199.841920, 221.398172
477, 25.060224, 193.313917, 213.864422
478, 25.035310, 186.839517, 206.389174
479, 25.010800, 180.420132, 198.974238
480, 24.986729, 174.057233, 191.621387
481, 24.960842, 199.726996, 221.519609
482, 24.935272, 193.194428, 213.980517
483, 24.910062, 186.715496, 206.499934
484, 24.885245, 180.291630, 199.079649
485, 24.860855, 173.924308, 191.721438
486, 24.835827, 199.525920, 220.564277
487, 24.811133, 192.989476, 213.028402
488, 24.786819, 186.506770, 205.551240
489, 24.762921, 180.079254, 198.134634
490, 24.739473, 173.708416, 190.780384
491, 24.715500, 199.587424, 219.689399
492, 24.691893, 193.045043, 212.155883
493, 24.668697, 186.556482, 204.681374
494, 24.645949, 180.123196, 197.267707
495, 24.623683, 173.746674, 189.916688
496, 24.601152, 199.623531, 218.486099
497, 24.579022, 193.075724, 210.958063
498, 24.557341, 186.581838, 203.489371
499, 24.536147, 180.143324, 196.081864
500, 24.515479, 173.761679, 188.737365
501, 24.493538, 199.476912, 217.801860
502, 24.472011, 192.925432, 210.275237
503, 24.450947, 186.427962, 202.808125
504, 24.430387, 179.985971, 195.402398
505, 24.410369, 173.600959, 188.059896
506, 24.389641, 199.770575, 217.061511
507, 24.369363, 193.211889, 209.536838
508, 24.349585, 186.707282, 202.071976
509, 24.330348, 180.258197, 194.668782
510, 24.311692, 173.866129, 187.329094
511, 24.291183, 199.633532, 216.718028
512, 24.271129, 193.071543, 209.192505
513, 24.251580, 186.563686, 201.726884
514, 24.232577, 180.111419, 194.323032
515, 24.214161, 173.716245, 186.982799
516, 24.194792, 199.544683, 215.617427
517, 24.175910, 192.979034, 208.096979
518, 24.157569, 186.467599, 200.636732
